0.46875
0.458984375
0.478515625
0.4931640625
0.5224609375
0.5615234375
0.5859375
0.6103515625
0.64453125
0.6640625
0.693359375
0.703125
0.7080078125
0.7177734375
0.72265625
0.7275390625
0.7421875
0.7421875
0.7568359375
0.7763671875
0.76171875
0.7763671875
0.771484375
0.76171875
0.7666015625
0.7568359375
0.7421875
0.7421875
0.7275390625
0.7177734375
0.72265625
0.703125
0.712890625
0.7177734375
0.7080078125
0.7177734375
0.712890625
0.703125
0.7080078125
0.6982421875
0.6982421875
0.703125
0.6787109375
0.673828125
0.673828125
0.6494140625
0.64453125
0.634765625
0.615234375
0.5908203125
0.5810546875
0.56640625
0.5712890625
0.546875
0.5419921875
0.5322265625
0.5224609375
0.517578125
0.5419921875
0.56640625
0.6201171875
0.6640625
0.703125
0.7470703125
0.7763671875
0.8154296875
0.859375
0.8740234375
0.908203125
0.9423828125
0.9423828125
0.9716796875
0.986328125
0.9912109375
1.0009765625
1.0009765625
1.005859375
1.015625
1.005859375
0.99609375
1.0107421875
0.9814453125
0.9814453125
0.9814453125
0.9521484375
0.947265625
0.9326171875
0.9130859375
0.91796875
0.8984375
0.888671875
0.888671875
0.869140625
0.869140625
0.8642578125
0.849609375
0.8447265625
0.83984375
0.8251953125
0.8251953125
0.7958984375
0.7861328125
0.7666015625
0.7470703125
0.732421875
0.7373046875
0.712890625
0.712890625
0.6982421875
0.6787109375
0.6787109375
0.6591796875
0.6494140625
0.6201171875
0.595703125
0.5712890625
0.5517578125
0.5322265625
0.52734375
0.5419921875
0.556640625
0.6005859375
0.6396484375
0.68359375
0.72265625
0.771484375
0.8056640625
0.849609375
0.87890625
0.9228515625
0.95703125
0.9765625
1.005859375
1.0400390625
1.0498046875
1.0595703125
1.07421875
1.083984375
1.0986328125
1.0986328125
1.1083984375
1.0986328125
1.0888671875
1.0791015625
1.064453125
1.0498046875
1.03515625
1.015625
1.0009765625
0.986328125
0.9716796875
0.9619140625
0.947265625
0.9375
0.9228515625
0.908203125
0.8984375
0.888671875
0.8740234375
0.8642578125
0.8544921875
0.83984375
0.830078125
0.8154296875
0.80078125
0.791015625
0.7763671875
0.76171875
0.751953125
0.7373046875
0.7275390625
0.712890625
0.703125
0.693359375
0.6787109375
0.6689453125
0.6591796875
0.64453125
0.6298828125
0.6201171875
0.60546875
0.5908203125
0.576171875
0.5615234375
0.546875
0.537109375
0.5224609375
0.5126953125
0.498046875
0.48828125
0.4833984375
0.4833984375
0.498046875
0.52734375
0.556640625
0.6005859375
0.6494140625
0.6982421875
0.7373046875
0.7861328125
0.8251953125
0.8642578125
0.9033203125
0.9326171875
0.9619140625
0.986328125
1.0107421875
1.0302734375
1.044921875
1.064453125
1.0791015625
1.0888671875
1.0986328125
1.1083984375
1.11328125
1.1181640625
1.11328125
1.11328125
1.103515625
1.09375
1.083984375
1.0693359375
1.0595703125
1.044921875
1.03515625
1.0205078125
1.0107421875
0.99609375
0.986328125
0.9716796875
0.9619140625
0.9521484375
0.9423828125
0.927734375
0.91796875
0.9033203125
0.888671875
0.87890625
0.859375
0.849609375
0.8349609375
0.8203125
0.8056640625
0.791015625
0.78125
0.7666015625
0.7470703125
0.7373046875
0.712890625
0.6982421875
0.68359375
0.6689453125
0.6494140625
0.634765625
0.6298828125
0.60546875
0.5908203125
0.5810546875
0.56640625
0.5517578125
0.5419921875
0.5322265625
0.5224609375
0.517578125
0.5029296875
0.498046875
0.48828125
0.4833984375
0.478515625
0.46875
0.4638671875
0.4638671875
0.46875
0.48828125
0.517578125
0.5517578125
0.6103515625
0.60546875
0.6103515625
0.634765625
0.6591796875
0.6982421875
0.732421875
0.7666015625
0.8056640625
0.83984375
0.869140625
0.9033203125
0.927734375
0.9423828125
0.966796875
0.9765625
0.9814453125
0.99609375
0.99609375
1.0009765625
1.005859375
0.99609375
0.9912109375
0.986328125
0.9765625
0.9716796875
0.9619140625
0.947265625
0.9375
0.91796875
0.9033203125
0.9033203125
0.87890625
0.869140625
0.869140625
0.8642578125
0.869140625
0.859375
0.83984375
0.8349609375
0.8203125
0.810546875
0.791015625
0.78125
0.76171875
0.7421875
0.7275390625
0.7177734375
0.7080078125
0.6884765625
0.6689453125
0.6640625
0.64453125
0.634765625
0.615234375
0.595703125
0.5859375
0.556640625
0.537109375
0.52734375
0.498046875
0.478515625
0.4638671875
0.4443359375
0.4296875
0.4150390625
0.3857421875
0.3662109375
0.3564453125
0.3466796875
0.3662109375
0.380859375
0.419921875
0.458984375
0.5029296875
0.5517578125
0.6005859375
0.634765625
0.68359375
0.712890625
0.732421875
0.751953125
0.7763671875
0.791015625
0.80078125
0.810546875
0.8203125
0.830078125
0.8349609375
0.83984375
0.8447265625
0.83984375
0.8544921875
0.83984375
0.8447265625
0.8447265625
0.8203125
0.8203125
0.810546875
0.7958984375
0.78125
0.771484375
0.7568359375
0.751953125
0.7421875
0.732421875
0.732421875
0.712890625
0.7080078125
0.6982421875
0.6884765625
0.673828125
0.6689453125
0.654296875
0.64453125
0.634765625
0.6201171875
0.6103515625
0.595703125
0.5859375
0.5712890625
0.5517578125
0.5419921875
0.52734375
0.5078125
0.5029296875
0.478515625
0.4638671875
0.439453125
0.419921875
0.4052734375
0.3955078125
0.3857421875
0.3759765625
0.390625
0.3759765625
0.380859375
0.3857421875
0.3955078125
0.4296875
0.4736328125
0.5126953125
0.5517578125
0.5908203125
0.6298828125
0.6640625
0.7080078125
0.7421875
0.78125
0.8056640625
0.8349609375
0.8642578125
0.8837890625
0.9033203125
0.908203125
0.91796875
0.9228515625
0.908203125
0.908203125
0.9033203125
0.87890625
0.87890625
0.859375
0.849609375
0.83984375
0.8203125
0.80078125
0.78125
0.7666015625
0.7568359375
0.7470703125
0.7275390625
0.7177734375
0.72265625
0.703125
0.6982421875
0.6884765625
0.673828125
0.6640625
0.6494140625
0.64453125
0.64453125
0.6201171875
0.6201171875
0.6201171875
0.595703125
0.5810546875
0.5712890625
0.5517578125
0.537109375
0.5126953125
0.498046875
0.48828125
0.46875
0.458984375
0.4443359375
0.4296875
0.419921875
0.4150390625
0.3955078125
0.3955078125
0.3955078125
0.3955078125
0.4150390625
0.458984375
0.5029296875
0.556640625
0.595703125
0.6494140625
0.693359375
0.732421875
0.771484375
0.8056640625
0.8251953125
0.849609375
0.859375
0.8740234375
0.87890625
0.8837890625
0.8837890625
0.8837890625
0.8837890625
0.87890625
0.8740234375
0.8642578125
0.859375
0.849609375
0.8349609375
0.8251953125
0.8154296875
0.80078125
0.791015625
0.7763671875
0.771484375
0.7666015625
0.7568359375
0.751953125
0.7470703125
0.7373046875
0.7421875
0.7275390625
0.7177734375
0.7177734375
0.6982421875
0.6787109375
0.6640625
0.64453125
0.625
0.625
0.6103515625
0.595703125
0.5810546875
0.5615234375
0.5517578125
0.5322265625
0.5126953125
0.5029296875
0.4736328125
0.4541015625
0.44921875
0.4296875
0.4345703125
0.4443359375
0.46875
0.5078125
0.537109375
0.5810546875
0.6201171875
0.654296875
0.6982421875
0.7421875
0.7666015625
0.8056640625
0.8251953125
0.83984375
0.8642578125
0.8837890625
0.888671875
0.8984375
0.8935546875
0.8935546875
0.9033203125
0.888671875
0.87890625
0.869140625
0.859375
0.8544921875
0.83984375
0.8203125
0.8056640625
0.7958984375
0.7861328125
0.7763671875
0.76171875
0.751953125
0.7421875
0.7275390625
0.7177734375
0.7080078125
0.693359375
0.68359375
0.673828125
0.6591796875
0.6494140625
0.634765625
0.615234375
0.6005859375
0.5859375
0.5712890625
0.556640625
0.537109375
0.52734375
0.517578125
0.5078125
0.5029296875
0.4931640625
0.48828125
0.48828125
0.46875
0.458984375
0.4638671875
0.4443359375
0.44921875
0.4833984375
0.5029296875
0.546875
0.60546875
0.6494140625
0.693359375
0.7470703125
0.791015625
0.8349609375
0.8544921875
0.87890625
0.908203125
0.91796875
0.9375
0.947265625
0.947265625
0.95703125
0.9521484375
0.9521484375
0.9619140625
0.9423828125
0.927734375
0.908203125
0.8935546875
0.87890625
0.8642578125
0.8544921875
0.8544921875
0.8349609375
0.830078125
0.8349609375
0.8154296875
0.810546875
0.810546875
0.791015625
0.7861328125
0.7763671875
0.76171875
0.751953125
0.732421875
0.712890625
0.6982421875
0.6884765625
0.6689453125
0.6494140625
0.6298828125
0.6103515625
0.595703125
0.5810546875
0.5615234375
0.556640625
0.5322265625
0.5126953125
0.5029296875
0.4833984375
0.4736328125
0.458984375
0.4443359375
0.4443359375
0.4345703125
0.4443359375
0.46875
0.4931640625
0.537109375
0.5810546875
0.625
0.68359375
0.732421875
0.7666015625
0.80078125
0.8203125
0.8447265625
0.8740234375
0.8740234375
0.8984375
0.91796875
0.9228515625
0.927734375
0.9423828125
0.9521484375
0.9619140625
0.9619140625
0.966796875
0.966796875
0.947265625
0.9375
0.9326171875
0.9130859375
0.8984375
0.8935546875
0.8740234375
0.869140625
0.8642578125
0.8544921875
0.8544921875
0.83984375
0.830078125
0.83984375
0.8203125
0.8056640625
0.7958984375
0.78125
0.76171875
0.7470703125
0.732421875
0.72265625
0.712890625
0.703125
0.6884765625
0.6689453125
0.6591796875
0.6494140625
0.625
0.615234375
0.595703125
0.5810546875
0.56640625
0.5517578125
0.5322265625
0.5224609375
0.5078125
0.498046875
0.5029296875
0.517578125
0.5419921875
0.595703125
0.634765625
0.68359375
0.7177734375
0.7568359375
0.7958984375
0.8203125
0.849609375
0.87890625
0.8837890625
0.888671875
0.9033203125
0.8984375
0.9033203125
0.9033203125
0.8984375
0.888671875
0.87890625
0.8642578125
0.859375
0.83984375
0.8154296875
0.791015625
0.7666015625
0.7421875
0.72265625
0.703125
0.68359375
0.6640625
0.6494140625
0.634765625
0.6201171875
0.6103515625
0.595703125
0.5859375
0.576171875
0.5615234375
0.5517578125
0.546875
0.5322265625
0.5224609375
0.5126953125
0.5029296875
0.48828125
0.48828125
0.4736328125
0.4638671875
0.458984375
0.4443359375
0.439453125
0.4345703125
0.419921875
0.4150390625
0.41015625
0.400390625
0.41015625
0.4052734375
0.4150390625
0.4638671875
0.498046875
0.556640625
0.6103515625
0.654296875
0.703125
0.7568359375
0.791015625
0.8251953125
0.8447265625
0.869140625
0.8837890625
0.888671875
0.8935546875
0.9130859375
0.9033203125
0.8984375
0.888671875
0.87890625
0.87890625
0.8642578125
0.849609375
0.8447265625
0.830078125
0.8154296875
0.810546875
0.7958984375
0.78125
0.7861328125
0.76171875
0.751953125
0.7470703125
0.732421875
0.72265625
0.7177734375
0.7080078125
0.7080078125
0.703125
0.6884765625
0.673828125
0.6640625
0.654296875
0.654296875
0.6396484375
0.6298828125
0.6201171875
0.6005859375
0.6005859375
0.5810546875
0.576171875
0.576171875
0.5517578125
0.5419921875
0.546875
0.5419921875
0.556640625
0.5810546875
0.6103515625
0.6591796875
0.6982421875
0.7373046875
0.78125
0.8056640625
0.83984375
0.869140625
0.8837890625
0.908203125
0.9326171875
0.9326171875
0.9423828125
0.9521484375
0.947265625
0.95703125
0.9521484375
0.9521484375
0.9521484375
0.9326171875
0.9326171875
0.91796875
0.8984375
0.888671875
0.8837890625
0.869140625
0.869140625
0.8544921875
0.83984375
0.8447265625
0.8251953125
0.8203125
0.810546875
0.791015625
0.791015625
0.7861328125
0.7666015625
0.7568359375
0.7373046875
0.7275390625
0.7080078125
0.6884765625
0.6787109375
0.6689453125
0.6494140625
0.6396484375
0.6396484375
0.615234375
0.6005859375
0.5908203125
0.56640625
0.556640625
0.546875
0.546875
0.5615234375
0.5810546875
0.6201171875
0.6689453125
0.693359375
0.7275390625
0.771484375
0.80078125
0.8349609375
0.8642578125
0.8740234375
0.8984375
0.91796875
0.9228515625
0.9326171875
0.9326171875
0.9375
0.947265625
0.9375
0.947265625
0.9423828125
0.9326171875
0.927734375
0.908203125
0.888671875
0.8837890625
0.8642578125
0.849609375
0.830078125
0.8203125
0.8056640625
0.7958984375
0.791015625
0.7861328125
0.78125
0.771484375
0.7861328125
0.7763671875
0.76171875
0.7666015625
0.751953125
0.751953125
0.751953125
0.732421875
0.7373046875
0.7373046875
0.7177734375
0.7177734375
0.703125
0.693359375
0.68359375
0.6591796875
0.634765625
0.6298828125
0.60546875
0.595703125
0.5859375
0.56640625
0.56640625
0.5712890625
0.5810546875
0.615234375
0.6494140625
0.6884765625
0.7275390625
0.76171875
0.80078125
0.8447265625
0.859375
0.8837890625
0.9130859375
0.927734375
0.9423828125
0.947265625
0.9619140625
0.966796875
0.966796875
0.9716796875
0.9716796875
0.9716796875
0.9716796875
0.966796875
0.9619140625
0.95703125
0.947265625
0.9375
0.927734375
0.91796875
0.9033203125
0.9033203125
0.888671875
0.8837890625
0.888671875
0.869140625
0.859375
0.859375
0.8349609375
0.8251953125
0.8203125
0.810546875
0.8154296875
0.80078125
0.791015625
0.791015625
0.7666015625
0.7568359375
0.751953125
0.732421875
0.7275390625
0.712890625
0.6982421875
0.6884765625
0.6787109375
0.6640625
0.6591796875
0.6298828125
0.6201171875
0.6103515625
0.5859375
0.5712890625
0.5615234375
0.5322265625
0.52734375
0.5224609375
0.517578125
0.5322265625
0.5517578125
0.576171875
0.60546875
0.6396484375
0.6787109375
0.712890625
0.7421875
0.791015625
0.8251953125
0.8544921875
0.87890625
0.8984375
0.927734375
0.9521484375
0.95703125
0.9716796875
0.986328125
0.986328125
0.986328125
0.99609375
0.9912109375
0.9814453125
0.9716796875
0.966796875
0.9619140625
0.9375
0.91796875
0.91796875
0.8984375
0.8935546875
0.8935546875
0.8740234375
0.8740234375
0.8642578125
0.8544921875
0.8544921875
0.8447265625
0.83984375
0.830078125
0.810546875
0.7958984375
0.791015625
0.771484375
0.7568359375
0.7568359375
0.7373046875
0.712890625
0.7080078125
0.693359375
0.6884765625
0.6640625
0.654296875
0.6494140625
0.6201171875
0.6103515625
0.595703125
0.5712890625
0.556640625
0.546875
0.5224609375
0.517578125
0.498046875
0.478515625
0.478515625
0.4541015625
0.44921875
0.4541015625
0.4443359375
0.458984375
0.4931640625
0.5224609375
0.5712890625
0.6201171875
0.6591796875
0.712890625
0.7470703125
0.791015625
0.8349609375
0.8447265625
0.8740234375
0.9033203125
0.908203125
0.927734375
0.9375
0.9423828125
0.947265625
0.9423828125
0.9521484375
0.9619140625
0.9521484375
0.947265625
0.947265625
0.927734375
0.9228515625
0.908203125
0.8837890625
0.869140625
0.8642578125
0.8447265625
0.83984375
0.8251953125
0.8154296875
0.8056640625
0.791015625
0.7763671875
0.7568359375
0.7421875
0.7275390625
0.7177734375
0.703125
0.6982421875
0.68359375
0.6689453125
0.6689453125
0.6494140625
0.6396484375
0.6201171875
0.6103515625
0.595703125
0.5859375
0.576171875
0.556640625
0.5419921875
0.52734375
0.517578125
0.5029296875
0.48828125
0.478515625
0.4638671875
0.44921875
0.439453125
0.4248046875
0.4150390625
0.400390625
0.3857421875
0.380859375
0.3662109375
0.361328125
0.37109375
0.380859375
0.4150390625
0.4443359375
0.4833984375
0.537109375
0.5908203125
0.6298828125
0.6689453125
0.703125
0.732421875
0.76171875
0.78125
0.7958984375
0.8154296875
0.830078125
0.83984375
0.8642578125
0.869140625
0.8935546875
0.908203125
0.908203125
0.9130859375
0.908203125
0.9130859375
0.9228515625
0.9033203125
0.8984375
0.9033203125
0.8837890625
0.8740234375
0.8642578125
0.849609375
0.849609375
0.8447265625
0.8349609375
0.8251953125
0.810546875
0.8056640625
0.810546875
0.791015625
0.78125
0.76171875
0.7421875
0.7275390625
0.72265625
0.703125
0.6982421875
0.673828125
0.6591796875
0.6591796875
0.634765625
0.6298828125
0.6103515625
0.5908203125
0.5810546875
0.5712890625
0.546875
0.52734375
0.5029296875
0.4736328125
0.439453125
0.41015625
0.3955078125
0.3955078125
0.37109375
0.361328125
0.3564453125
0.3662109375
0.390625
0.4345703125
0.4736328125
0.5322265625
0.5810546875
0.6298828125
0.6884765625
0.7275390625
0.7666015625
0.7861328125
0.810546875
0.8349609375
0.849609375
0.8544921875
0.87890625
0.8935546875
0.8984375
0.9130859375
0.908203125
0.9033203125
0.908203125
0.8935546875
0.8935546875
0.8837890625
0.869140625
0.869140625
0.869140625
0.859375
0.849609375
0.8349609375
0.830078125
0.830078125
0.810546875
0.8056640625
0.810546875
0.7861328125
0.78125
0.7763671875
0.751953125
0.7470703125
0.732421875
0.7177734375
0.703125
0.6884765625
0.6787109375
0.6640625
0.64453125
0.6298828125
0.615234375
0.6005859375
0.5810546875
0.5712890625
0.556640625
0.5419921875
0.52734375
0.5126953125
0.5078125
0.4931640625
0.48828125
0.4931640625
0.4736328125
0.46875
0.4638671875
0.458984375
0.4638671875
0.4736328125
0.48828125
0.5322265625
0.56640625
0.615234375
0.6689453125
0.703125
0.751953125
0.80078125
0.830078125
0.859375
0.87890625
0.8984375
0.9228515625
0.91796875
0.91796875
0.927734375
0.9228515625
0.91796875
0.9326171875
0.91796875
0.908203125
0.9033203125
0.8837890625
0.869140625
0.859375
0.8349609375
0.830078125
0.8154296875
0.810546875
0.810546875
0.7958984375
0.78125
0.771484375
0.76171875
0.751953125
0.7568359375
0.751953125
0.7470703125
0.7373046875
0.72265625
0.712890625
0.703125
0.693359375
0.6884765625
0.673828125
0.6640625
0.654296875
0.6396484375
0.625
0.60546875
0.595703125
0.576171875
0.56640625
0.5517578125
0.537109375
0.5224609375
0.5126953125
0.498046875
0.4931640625
0.48828125
0.4931640625
0.5126953125
0.5419921875
0.576171875
0.615234375
0.6494140625
0.693359375
0.7275390625
0.751953125
0.78125
0.8056640625
0.8251953125
0.83984375
0.8544921875
0.869140625
0.8740234375
0.87890625
0.8837890625
0.87890625
0.869140625
0.8740234375
0.8740234375
0.869140625
0.8642578125
0.859375
0.849609375
0.8349609375
0.8203125
0.8154296875
0.8056640625
0.8056640625
0.7861328125
0.7958984375
0.791015625
0.771484375
0.7568359375
0.751953125
0.732421875
0.7373046875
0.72265625
0.7080078125
0.7177734375
0.703125
0.703125
0.7080078125
0.6884765625
0.6689453125
0.654296875
0.6298828125
0.6103515625
0.6005859375
0.5810546875
0.56640625
0.5517578125
0.52734375
0.52734375
0.5029296875
0.5029296875
0.5224609375
0.537109375
0.576171875
0.6201171875
0.6591796875
0.7080078125
0.7470703125
0.7763671875
0.8203125
0.859375
0.87890625
0.9033203125
0.908203125
0.9130859375
0.908203125
0.908203125
0.9033203125
0.8935546875
0.888671875
0.8935546875
0.888671875
0.87890625
0.87890625
0.8642578125
0.859375
0.859375
0.83984375
0.83984375
0.8251953125
0.80078125
0.7861328125
0.7666015625
0.751953125
0.7421875
0.7373046875
0.7421875
0.732421875
0.732421875
0.7275390625
0.7177734375
0.703125
0.7080078125
0.712890625
0.6982421875
0.6884765625
0.6787109375
0.6689453125
0.6640625
0.6396484375
0.625
0.625
0.6005859375
0.595703125
0.5908203125
0.56640625
0.556640625
0.546875
0.5419921875
0.546875
0.5615234375
0.595703125
0.6396484375
0.673828125
0.712890625
0.771484375
0.791015625
0.8251953125
0.8642578125
0.888671875
0.9130859375
0.927734375
0.9375
0.95703125
0.9619140625
0.966796875
0.9765625
0.9716796875
0.9765625
0.9814453125
0.9716796875
0.9716796875
0.9619140625
0.947265625
0.9423828125
0.9130859375
0.9033203125
0.888671875
0.8642578125
0.8642578125
0.8544921875
0.830078125
0.8251953125
0.8154296875
0.7958984375
0.7958984375
0.78125
0.76171875
0.7568359375
0.7373046875
0.7470703125
0.7470703125
0.7373046875
0.7373046875
0.7421875
0.732421875
0.7177734375
0.7080078125
0.68359375
0.6787109375
0.673828125
0.6640625
0.6591796875
0.634765625
0.615234375
0.576171875
0.546875
0.5224609375
0.4931640625
0.48828125
0.5029296875
0.517578125
0.546875
0.5908203125
0.6201171875
0.64453125
0.6787109375
0.72265625
0.7666015625
0.810546875
0.830078125
0.859375
0.888671875
0.908203125
0.9326171875
0.9326171875
0.9423828125
0.9423828125
0.9423828125
0.9521484375
0.95703125
0.9521484375
0.947265625
0.947265625
0.9423828125
0.9423828125
0.9375
0.927734375
0.9326171875
0.9130859375
0.908203125
0.8984375
0.87890625
0.859375
0.8544921875
0.8251953125
0.8203125
0.810546875
0.791015625
0.771484375
0.751953125
0.7373046875
0.732421875
0.7080078125
0.68359375
0.6591796875
0.64453125
0.6201171875
0.6005859375
0.5810546875
0.5712890625
0.56640625
0.556640625
0.5517578125
0.5419921875
0.5322265625
0.5419921875
0.5224609375
0.5224609375
0.52734375
0.5224609375
0.5224609375
0.5126953125
0.5078125
0.5078125
0.5029296875
0.52734375
0.5712890625
0.6005859375
0.64453125
0.6982421875
0.7568359375
0.8203125
0.8837890625
0.91796875
0.9619140625
0.99609375
1.0205078125
1.0546875
1.064453125
1.083984375
1.083984375
1.083984375
1.0791015625
1.083984375
1.0791015625
1.0693359375
1.0595703125
1.0498046875
1.03515625
1.0205078125
1.005859375
0.986328125
0.9716796875
0.95703125
0.9423828125
0.927734375
0.908203125
0.8984375
0.888671875
0.8837890625
0.8740234375
0.869140625
0.869140625
0.859375
0.8544921875
0.849609375
0.8349609375
0.8251953125
0.810546875
0.7958984375
0.78125
0.771484375
0.751953125
0.7421875
0.7275390625
0.7080078125
0.693359375
0.673828125
0.654296875
0.6396484375
0.6103515625
0.5908203125
0.5810546875
0.556640625
0.5419921875
0.5224609375
0.5078125
0.5078125
0.5029296875
0.498046875
0.5322265625
0.5615234375
0.60546875
0.64453125
0.6884765625
0.732421875
0.7666015625
0.8056640625
0.8349609375
0.859375
0.8837890625
0.8935546875
0.9033203125
0.9228515625
0.9375
0.9375
0.947265625
0.95703125
0.95703125
0.9619140625
0.947265625
0.9423828125
0.9228515625
0.908203125
0.8984375
0.8984375
0.8740234375
0.8642578125
0.849609375
0.8349609375
0.8251953125
0.8154296875
0.8056640625
0.80078125
0.7861328125
0.78125
0.7763671875
0.76171875
0.751953125
0.7421875
0.72265625
0.7080078125
0.6884765625
0.6689453125
0.654296875
0.64453125
0.6298828125
0.615234375
0.6005859375
0.5859375
0.5859375
0.5615234375
0.546875
0.5419921875
0.5224609375
0.5126953125
0.5029296875
0.4833984375
0.4736328125
0.4541015625
0.439453125
0.439453125
0.4248046875
0.419921875
0.4345703125
0.4541015625
0.48828125
0.52734375
0.5712890625
0.6201171875
0.6591796875
0.7080078125
0.76171875
0.7861328125
0.810546875
0.849609375
0.8642578125
0.888671875
0.908203125
0.9228515625
0.947265625
0.9619140625
0.966796875
0.9619140625
0.9521484375
0.9423828125
0.927734375
0.9130859375
0.8984375
0.8837890625
0.859375
0.849609375
0.830078125
0.8154296875
0.80078125
0.791015625
0.78125
0.771484375
0.7568359375
0.7421875
0.7275390625
0.7177734375
0.7080078125
0.693359375
0.6884765625
0.6787109375
0.6689453125
0.6640625
0.6591796875
0.64453125
0.6396484375
0.634765625
0.6201171875
0.6201171875
0.6298828125
0.60546875
0.6005859375
0.595703125
0.576171875
0.56640625
0.556640625
0.5419921875
0.537109375
0.517578125
0.5126953125
0.5078125
0.48828125
0.478515625
0.478515625
0.4736328125
0.498046875
0.52734375
0.56640625
0.6201171875
0.654296875
0.703125
0.7568359375
0.78125
0.810546875
0.83984375
0.859375
0.869140625
0.8837890625
0.8935546875
0.8984375
0.9033203125
0.9033203125
0.9033203125
0.9033203125
0.8984375
0.8935546875
0.8837890625
0.8740234375
0.87890625
0.8642578125
0.869140625
0.8642578125
0.849609375
0.849609375
0.8349609375
0.830078125
0.8056640625
0.791015625
0.7763671875
0.78125
0.76171875
0.7470703125
0.7275390625
0.712890625
0.703125
0.6884765625
0.6787109375
0.673828125
0.654296875
0.6396484375
0.634765625
0.6201171875
0.615234375
0.6103515625
0.5859375
0.576171875
0.5712890625
0.556640625
0.546875
0.5322265625
0.517578125
0.5078125
0.4833984375
0.46875
0.4736328125
0.4541015625
0.4443359375
0.439453125
0.4248046875
0.4443359375
0.46875
0.4931640625
0.5419921875
0.5712890625
0.615234375
0.6689453125
0.693359375
0.732421875
0.7763671875
0.7958984375
0.830078125
0.849609375
0.8544921875
0.859375
0.859375
0.8642578125
0.869140625
0.859375
0.859375
0.8642578125
0.8447265625
0.830078125
0.8251953125
0.80078125
0.791015625
0.771484375
0.751953125
0.7275390625
0.7177734375
0.712890625
0.72265625
0.7080078125
0.7080078125
0.703125
0.6982421875
0.693359375
0.68359375
0.6787109375
0.68359375
0.68359375
0.68359375
0.68359375
0.6689453125
0.6640625
0.6591796875
0.64453125
0.64453125
0.6396484375
0.6201171875
0.6103515625
0.595703125
0.5712890625
0.5517578125
0.537109375
0.517578125
0.5224609375
0.48828125
0.478515625
0.4736328125
0.458984375
0.4638671875
0.478515625
0.498046875
0.5419921875
0.576171875
0.625
0.673828125
0.703125
0.7470703125
0.78125
0.8056640625
0.8251953125
0.83984375
0.8544921875
0.8642578125
0.8740234375
0.87890625
0.888671875
0.888671875
0.8837890625
0.8935546875
0.87890625
0.888671875
0.888671875
0.8740234375
0.869140625
0.859375
0.8447265625
0.8447265625
0.830078125
0.830078125
0.8251953125
0.8154296875
0.80078125
0.810546875
0.7958984375
0.791015625
0.7861328125
0.7763671875
0.7763671875
0.7568359375
0.7373046875
0.7421875
0.72265625
0.712890625
0.7177734375
0.6884765625
0.6787109375
0.6787109375
0.654296875
0.6494140625
0.634765625
0.615234375
0.6103515625
0.595703125
0.5859375
0.595703125
0.576171875
0.5712890625
0.56640625
0.556640625
0.5615234375
0.5810546875
0.6103515625
0.654296875
0.7080078125
0.751953125
0.8056640625
0.8544921875
0.888671875
0.91796875
0.947265625
0.966796875
0.986328125
1.0009765625
1.0107421875
1.0205078125
1.025390625
1.0302734375
1.03515625
1.0302734375
1.0302734375
1.025390625
1.0205078125
1.015625
1.0009765625
0.9912109375
0.9814453125
0.966796875
0.95703125
0.9423828125
0.9326171875
0.927734375
0.9130859375
0.8984375
0.8935546875
0.87890625
0.869140625
0.8642578125
0.8447265625
0.8447265625
0.83984375
0.8251953125
0.810546875
0.7958984375
0.78125
0.7763671875
0.751953125
0.7421875
0.7470703125
0.7177734375
0.693359375
0.6689453125
0.6494140625
0.6298828125
0.60546875
0.5859375
0.5859375
0.5712890625
0.5615234375
0.5517578125
0.5322265625
0.537109375
0.5517578125
0.5517578125
0.576171875
0.6298828125
0.6640625
0.72265625
0.76171875
0.80078125
0.83984375
0.8642578125
0.888671875
0.91796875
0.9326171875
0.95703125
0.9716796875
0.9814453125
0.9912109375
0.9912109375
0.9912109375
0.986328125
0.986328125
0.986328125
0.9814453125
0.9619140625
0.9521484375
0.947265625
0.927734375
0.927734375
0.9130859375
0.8935546875
0.8837890625
0.869140625
0.859375
0.849609375
0.830078125
0.8251953125
0.8154296875
0.7958984375
0.791015625
0.791015625
0.7666015625
0.7666015625
0.7568359375
0.732421875
0.7275390625
0.712890625
0.703125
0.6982421875
0.673828125
0.6591796875
0.654296875
0.6298828125
0.6103515625
0.595703125
0.5859375
0.5712890625
0.5517578125
0.52734375
0.5224609375
0.5029296875
0.48828125
0.4931640625
0.4736328125
0.4736328125
0.48828125
0.5029296875
0.5419921875
0.5810546875
0.6201171875
0.6689453125
0.7080078125
0.7470703125
0.78125
0.8056640625
0.830078125
0.8447265625
0.8642578125
0.8740234375
0.888671875
0.8984375
0.908203125
0.9130859375
0.9130859375
0.91796875
0.9130859375
0.908203125
0.9033203125
0.888671875
0.87890625
0.8642578125
0.849609375
0.83984375
0.8251953125
0.810546875
0.80078125
0.791015625
0.7763671875
0.771484375
0.76171875
0.751953125
0.7470703125
0.7373046875
0.7275390625
0.7177734375
0.7080078125
0.703125
0.6982421875
0.68359375
0.673828125
0.6640625
0.654296875
0.64453125
0.6298828125
0.6201171875
0.6103515625
0.595703125
0.5908203125
0.5712890625
0.556640625
0.5419921875
0.52734375
0.5126953125
0.5126953125
0.4931640625
0.478515625
0.4833984375
0.4638671875
0.4638671875
0.4541015625
0.4638671875
0.48828125
0.5322265625
0.5712890625
0.625
0.6591796875
0.712890625
0.7666015625
0.7958984375
0.8349609375
0.8740234375
0.8935546875
0.9130859375
0.9326171875
0.9375
0.95703125
0.9619140625
0.9619140625
0.9814453125
0.966796875
0.9619140625
0.9619140625
0.947265625
0.947265625
0.9375
0.91796875
0.9130859375
0.8935546875
0.8740234375
0.859375
0.8447265625
0.83984375
0.83984375
0.8203125
0.8203125
0.810546875
0.791015625
0.771484375
0.76171875
0.751953125
0.751953125
0.732421875
0.72265625
0.72265625
0.6982421875
0.6884765625
0.6884765625
0.6591796875
0.654296875
0.6396484375
0.6201171875
0.6005859375
0.5810546875
0.56640625
0.5615234375
0.5322265625
0.517578125
0.5224609375
0.4931640625
0.4833984375
0.4833984375
0.4638671875
0.4443359375
0.4296875
0.419921875
0.4248046875
0.44921875
0.478515625
0.5224609375
0.56640625
0.615234375
0.6787109375
0.712890625
0.7568359375
0.791015625
0.8154296875
0.8447265625
0.8642578125
0.87890625
0.9033203125
0.908203125
0.9228515625
0.9228515625
0.91796875
0.9130859375
0.9033203125
0.8935546875
0.888671875
0.8837890625
0.869140625
0.8544921875
0.8349609375
0.8203125
0.810546875
0.791015625
0.7763671875
0.7666015625
0.751953125
0.7421875
0.7275390625
0.7177734375
0.7177734375
0.7080078125
0.6982421875
0.703125
0.6884765625
0.68359375
0.68359375
0.6640625
0.6591796875
0.6494140625
0.6298828125
0.6298828125
0.615234375
0.6005859375
0.5859375
0.5712890625
0.5615234375
0.556640625
0.5322265625
0.5224609375
0.517578125
0.48828125
0.48828125
0.4833984375
0.46875
0.4638671875
0.4541015625
0.4541015625
0.4638671875
0.46875
0.5078125
0.56640625
0.595703125
0.64453125
0.6884765625
0.7373046875
0.771484375
0.8056640625
0.830078125
0.859375
0.869140625
0.8935546875
0.91796875
0.91796875
0.927734375
0.9375
0.9326171875
0.9375
0.927734375
0.9130859375
0.9033203125
0.8984375
0.888671875
0.8740234375
0.8544921875
0.83984375
0.830078125
0.810546875
0.810546875
0.7958984375
0.7861328125
0.7666015625
0.751953125
0.7373046875
0.72265625
0.712890625
0.7080078125
0.7080078125
0.6884765625
0.673828125
0.68359375
0.6640625
0.654296875
0.654296875
0.634765625
0.6298828125
0.60546875
0.595703125
0.595703125
0.5712890625
0.5615234375
0.5419921875
0.5224609375
0.517578125
0.5126953125
0.498046875
0.4833984375
0.4736328125
0.478515625
0.4931640625
0.5126953125
0.5419921875
0.5908203125
0.6298828125
0.68359375
0.7421875
0.78125
0.830078125
0.8642578125
0.8837890625
0.9130859375
0.9326171875
0.9423828125
0.95703125
0.95703125
0.9619140625
0.9765625
0.966796875
0.9716796875
0.9619140625
0.9521484375
0.9423828125
0.9326171875
0.91796875
0.908203125
0.8837890625
0.869140625
0.8642578125
0.8447265625
0.8251953125
0.8251953125
0.810546875
0.8056640625
0.80078125
0.7861328125
0.7763671875
0.76171875
0.7568359375
0.7568359375
0.7373046875
0.7275390625
0.7177734375
0.6982421875
0.68359375
0.6689453125
0.6494140625
0.6396484375
0.615234375
0.60546875
0.5859375
0.5712890625
0.5517578125
0.5419921875
0.5224609375
0.5078125
0.498046875
0.4833984375
0.48828125
0.498046875
0.5078125
0.5322265625
0.56640625
0.6103515625
0.6689453125
0.712890625
0.7568359375
0.8056640625
0.8349609375
0.869140625
0.9033203125
0.9228515625
0.9326171875
0.947265625
0.9521484375
0.9619140625
0.9716796875
0.9814453125
0.99609375
0.9912109375
0.9912109375
0.9912109375
0.9765625
0.9619140625
0.95703125
0.9375
0.927734375
0.9130859375
0.8984375
0.888671875
0.8740234375
0.869140625
0.8544921875
0.8349609375
0.830078125
0.8349609375
0.8154296875
0.8056640625
0.80078125
0.791015625
0.791015625
0.7763671875
0.76171875
0.7568359375
0.732421875
0.7177734375
0.7080078125
0.68359375
0.673828125
0.6591796875
0.6396484375
0.6298828125
0.60546875
0.5908203125
0.5810546875
0.556640625
0.546875
0.5322265625
0.5126953125
0.5029296875
0.5029296875
0.5078125
0.5322265625
0.576171875
0.615234375
0.6640625
0.7080078125
0.7470703125
0.7958984375
0.830078125
0.8544921875
0.888671875
0.908203125
0.9326171875
0.947265625
0.9521484375
0.9619140625
0.966796875
0.966796875
0.966796875
0.966796875
0.9619140625
0.9521484375
0.947265625
0.9375
0.927734375
0.9130859375
0.8984375
0.888671875
0.87890625
0.869140625
0.8544921875
0.849609375
0.859375
0.83984375
0.8251953125
0.8251953125
0.810546875
0.80078125
0.7958984375
0.78125
0.78125
0.771484375
0.7568359375
0.7470703125
0.7275390625
0.7177734375
0.693359375
0.6787109375
0.6591796875
0.6396484375
0.6201171875
0.60546875
0.5859375
0.5712890625
0.556640625
0.537109375
0.5224609375
0.5126953125
0.4931640625
0.4833984375
0.46875
0.458984375
0.4541015625
0.44921875
0.458984375
0.4833984375
0.5224609375
0.5712890625
0.615234375
0.6640625
0.7177734375
0.7568359375
0.791015625
0.8349609375
0.87890625
0.8984375
0.9326171875
0.947265625
0.9619140625
0.9814453125
0.986328125
0.99609375
1.0009765625
0.9912109375
0.99609375
0.99609375
0.986328125
0.9765625
0.9619140625
0.9521484375
0.9375
0.927734375
0.908203125
0.8984375
0.8837890625
0.8837890625
0.869140625
0.8544921875
0.8447265625
0.83984375
0.830078125
0.8154296875
0.810546875
0.7958984375
0.791015625
0.771484375
0.7568359375
0.751953125
0.7275390625
0.712890625
0.703125
0.6787109375
0.6591796875
0.654296875
0.6298828125
0.6201171875
0.60546875
0.576171875
0.5712890625
0.5419921875
0.52734375
0.52734375
0.4931640625
0.4736328125
0.46875
0.44921875
0.439453125
0.4443359375
0.4296875
0.4443359375
0.4541015625
0.48828125
0.546875
0.5859375
0.6396484375
0.693359375
0.7275390625
0.76171875
0.8056640625
0.830078125
0.859375
0.87890625
0.8984375
0.908203125
0.91796875
0.9228515625
0.9423828125
0.927734375
0.9228515625
0.927734375
0.9130859375
0.8984375
0.87890625
0.859375
0.8447265625
0.830078125
0.830078125
0.810546875
0.7958984375
0.78125
0.771484375
0.7568359375
0.7470703125
0.7421875
0.732421875
0.7177734375
0.712890625
0.703125
0.703125
0.693359375
0.68359375
0.6787109375
0.6689453125
0.654296875
0.6494140625
0.6298828125
0.6201171875
0.6201171875
0.6005859375
0.5908203125
0.576171875
0.56640625
0.556640625
0.537109375
0.5224609375
0.5078125
0.48828125
0.4833984375
0.4736328125
0.4638671875
0.458984375
0.458984375
0.46875
0.5126953125
0.546875
0.6005859375
0.6494140625
0.6884765625
0.7373046875
0.791015625
0.8154296875
0.849609375
0.87890625
0.8984375
0.91796875
0.927734375
0.9375
0.95703125
0.9521484375
0.95703125
0.9619140625
0.947265625
0.9423828125
0.9423828125
0.927734375
0.9228515625
0.9033203125
0.888671875
0.87890625
0.859375
0.849609375
0.8544921875
0.830078125
0.8203125
0.810546875
0.7958984375
0.78125
0.7763671875
0.7568359375
0.7470703125
0.732421875
0.72265625
0.72265625
0.703125
0.6982421875
0.68359375
0.6640625
0.654296875
0.634765625
0.615234375
0.6005859375
0.5810546875
0.5615234375
0.5517578125
0.5322265625
0.517578125
0.5126953125
0.4931640625
0.4833984375
0.4736328125
0.4638671875
0.4541015625
0.458984375
0.4833984375
0.517578125
0.556640625
0.6005859375
0.6689453125
0.712890625
0.7666015625
0.8251953125
0.849609375
0.87890625
0.9033203125
0.91796875
0.9326171875
0.947265625
0.9521484375
0.95703125
0.9619140625
0.9619140625
0.9619140625
0.9619140625
0.95703125
0.9521484375
0.9423828125
0.9375
0.9228515625
0.9130859375
0.8984375
0.8837890625
0.869140625
0.859375
0.849609375
0.8349609375
0.830078125
0.8154296875
0.80078125
0.7958984375
0.7861328125
0.7763671875
0.7666015625
0.7568359375
0.7568359375
0.7421875
0.7373046875
0.732421875
0.712890625
0.703125
0.7080078125
0.693359375
0.6884765625
0.673828125
0.6640625
0.6591796875
0.64453125
0.634765625
0.6298828125
0.60546875
0.595703125
0.5908203125
0.56640625
0.556640625
0.556640625
0.546875
0.5615234375
0.5908203125
0.6298828125
0.6787109375
0.712890625
0.7666015625
0.8251953125
0.8544921875
0.888671875
0.927734375
0.9521484375
0.9716796875
0.9814453125
0.99609375
1.0107421875
1.025390625
1.03515625
1.0400390625
1.03515625
1.0400390625
1.03515625
1.025390625
1.0205078125
1.005859375
0.986328125
0.9765625
0.95703125
0.9423828125
0.9375
0.9228515625
0.9033203125
0.8935546875
0.8740234375
0.859375
0.8544921875
0.8349609375
0.8203125
0.8056640625
0.7861328125
0.771484375
0.7568359375
0.7421875
0.732421875
0.7177734375
0.7080078125
0.703125
0.68359375
0.6640625
0.6689453125
0.64453125
0.6298828125
0.615234375
0.5908203125
0.5859375
0.5712890625
0.5419921875
0.537109375
0.5078125
0.4931640625
0.46875
0.44921875
0.4443359375
0.439453125
0.4296875
0.44921875
0.458984375
0.498046875
0.5517578125
0.5908203125
0.6494140625
0.703125
0.7373046875
0.7861328125
0.830078125
0.8544921875
0.8740234375
0.8935546875
0.9130859375
0.9326171875
0.9375
0.947265625
0.9619140625
0.9521484375
0.9521484375
0.9521484375
0.9423828125
0.9326171875
0.9228515625
0.908203125
0.8984375
0.87890625
0.8642578125
0.8544921875
0.83984375
0.8349609375
0.8349609375
0.8203125
0.8056640625
0.80078125
0.78125
0.771484375
0.7666015625
0.751953125
0.7421875
0.72265625
0.7080078125
0.7080078125
0.68359375
0.6640625
0.6640625
0.6396484375
0.6201171875
0.6103515625
0.5859375
0.5810546875
0.56640625
0.5419921875
0.5322265625
0.5029296875
0.4931640625
0.4833984375
0.458984375
0.4443359375
0.439453125
0.4248046875
0.4150390625
0.4150390625
0.3955078125
0.400390625
0.3857421875
0.3857421875
0.41015625
0.4296875
0.4833984375
0.556640625
0.6005859375
0.6494140625
0.693359375
0.732421875
0.7666015625
0.7958984375
0.8203125
0.8447265625
0.8642578125
0.87890625
0.9033203125
0.908203125
0.927734375
0.9326171875
0.927734375
0.9326171875
0.9326171875
0.927734375
0.927734375
0.91796875
0.91796875
0.9033203125
0.8837890625
0.859375
0.8544921875
0.8349609375
0.8251953125
0.8203125
0.8056640625
0.791015625
0.771484375
0.7666015625
0.771484375
0.751953125
0.7421875
0.732421875
0.7080078125
0.6982421875
0.6884765625
0.6640625
0.6494140625
0.634765625
0.615234375
0.595703125
0.5712890625
0.546875
0.537109375
0.5078125
0.4931640625
0.498046875
0.4736328125
0.46875
0.46875
0.4638671875
0.458984375
0.44921875
0.44921875
0.458984375
0.44921875
0.458984375
0.478515625
0.517578125
0.5712890625
0.634765625
0.6787109375
0.7275390625
0.76171875
0.7958984375
0.8349609375
0.859375
0.8740234375
0.9033203125
0.908203125
0.9228515625
0.9228515625
0.91796875
0.927734375
0.9228515625
0.9130859375
0.8984375
0.8837890625
0.8740234375
0.869140625
0.8447265625
0.830078125
0.830078125
0.80078125
0.791015625
0.7763671875
0.7568359375
0.7470703125
0.7373046875
0.7177734375
0.7177734375
0.6982421875
0.68359375
0.68359375
0.6591796875
0.6591796875
0.6494140625
0.6298828125
0.6201171875
0.6005859375
0.576171875
0.5517578125
0.5322265625
0.5126953125
0.5126953125
0.4833984375
0.4736328125
0.478515625
0.4541015625
0.4541015625
0.44921875
0.4296875
0.4248046875
0.419921875
0.41015625
0.41015625
0.4052734375
0.41015625
0.439453125
0.4638671875
0.5078125
0.5712890625
0.615234375
0.673828125
0.7373046875
0.771484375
0.8203125
0.8447265625
0.8740234375
0.8935546875
0.9033203125
0.9130859375
0.9423828125
0.9375
0.947265625
0.95703125
0.9521484375
0.95703125
0.9423828125
0.927734375
0.91796875
0.8984375
0.8935546875
0.888671875
0.859375
0.849609375
0.830078125
0.8154296875
0.7958984375
0.7861328125
0.7666015625
0.751953125
0.7373046875
0.7177734375
0.7080078125
0.6982421875
0.68359375
0.6787109375
0.6640625
0.6591796875
0.6640625
0.6494140625
0.6494140625
0.64453125
0.6201171875
0.6201171875
0.6005859375
0.5908203125
0.5859375
0.5615234375
0.556640625
0.5615234375
0.5322265625
0.5224609375
0.5126953125
0.4931640625
0.4833984375
0.4736328125
0.46875
0.4736328125
0.4833984375
0.5224609375
0.5859375
0.625
0.6787109375
0.7275390625
0.7763671875
0.8349609375
0.8740234375
0.908203125
0.947265625
0.966796875
0.9912109375
1.015625
1.0205078125
1.0302734375
1.0400390625
1.03515625
1.0400390625
1.025390625
1.0107421875
0.9912109375
0.966796875
0.947265625
0.927734375
0.908203125
0.8935546875
0.8740234375
0.8642578125
0.849609375
0.83984375
0.830078125
0.8203125
0.810546875
0.7958984375
0.7861328125
0.7763671875
0.771484375
0.771484375
0.751953125
0.751953125
0.7373046875
0.7177734375
0.7080078125
0.6982421875
0.6787109375
0.673828125
0.6591796875
0.6396484375
0.6298828125
0.615234375
0.595703125
0.5908203125
0.56640625
0.556640625
0.546875
0.5224609375
0.517578125
0.5078125
0.498046875
0.498046875
0.4833984375
0.48828125
0.5224609375
0.5419921875
0.5859375
0.6494140625
0.693359375
0.7470703125
0.7958984375
0.830078125
0.8740234375
0.9130859375
0.9326171875
0.9619140625
0.9765625
0.986328125
1.005859375
1.0009765625
1.005859375
1.015625
1.005859375
1.0107421875
1.0009765625
0.9912109375
0.9912109375
0.966796875
0.95703125
0.9423828125
0.9228515625
0.908203125
0.8984375
0.8740234375
0.8642578125
0.849609375
0.830078125
0.8154296875
0.8056640625
0.791015625
0.7763671875
0.7666015625
0.7666015625
0.771484375
0.7568359375
0.751953125
0.751953125
0.7373046875
0.7177734375
0.703125
0.6787109375
0.6640625
0.6396484375
0.6103515625
0.6005859375
0.56640625
0.556640625
0.546875
0.5322265625
0.517578125
0.5029296875
0.48828125
0.46875
0.44921875
0.4296875
0.4150390625
0.4052734375
0.3955078125
0.4052734375
0.390625
0.4052734375
0.4443359375
0.4833984375
0.5322265625
0.5908203125
0.6298828125
0.68359375
0.732421875
0.7861328125
0.8349609375
0.869140625
0.8935546875
0.8984375
0.908203125
0.9228515625
0.9326171875
0.9375
0.9423828125
0.9521484375
0.9423828125
0.947265625
0.9375
0.9375
0.9423828125
0.927734375
0.9228515625
0.91796875
0.8984375
0.8935546875
0.8740234375
0.859375
0.859375
0.849609375
0.83984375
0.8349609375
0.8154296875
0.80078125
0.7958984375
0.78125
0.771484375
0.7568359375
0.7470703125
0.7275390625
0.712890625
0.6982421875
0.693359375
0.673828125
0.6591796875
0.6494140625
0.625
0.615234375
0.6005859375
0.576171875
0.56640625
0.556640625
0.5322265625
0.517578125
0.498046875
0.478515625
0.4736328125
0.44921875
0.439453125
0.4443359375
0.4296875
0.4296875
0.4541015625
0.4736328125
0.517578125
0.556640625
0.60546875
0.6494140625
0.68359375
0.7275390625
0.7763671875
0.7958984375
0.8203125
0.849609375
0.8642578125
0.87890625
0.8935546875
0.8935546875
0.908203125
0.91796875
0.927734375
0.9375
0.9423828125
0.9375
0.9423828125
0.9228515625
0.91796875
0.9130859375
0.8984375
0.8837890625
0.869140625
0.849609375
0.8349609375
0.8203125
0.810546875
0.810546875
0.8056640625
0.8056640625
0.8056640625
0.7958984375
0.7861328125
0.7763671875
0.7666015625
0.7666015625
0.7470703125
0.7421875
0.7421875
0.72265625
0.7177734375
0.7177734375
0.68359375
0.673828125
0.6689453125
0.654296875
0.64453125
0.6298828125
0.6201171875
0.6103515625
0.5908203125
0.5810546875
0.5810546875
0.556640625
0.5517578125
0.5517578125
0.556640625
0.5859375
0.6298828125
0.6787109375
0.7275390625
0.7666015625
0.8154296875
0.849609375
0.8837890625
0.9228515625
0.9423828125
0.95703125
0.9716796875
0.986328125
0.99609375
1.005859375
1.0009765625
0.99609375
0.99609375
0.9765625
0.9619140625
0.95703125
0.9326171875
0.91796875
0.9033203125
0.8837890625
0.8740234375
0.859375
0.849609375
0.83984375
0.830078125
0.8251953125
0.8154296875
0.80078125
0.791015625
0.80078125
0.7763671875
0.76171875
0.751953125
0.7373046875
0.732421875
0.7275390625
0.712890625
0.693359375
0.673828125
0.6591796875
0.6591796875
0.6298828125
0.60546875
0.5859375
0.56640625
0.5517578125
0.5419921875
0.5224609375
0.5126953125
0.498046875
0.4833984375
0.4833984375
0.4736328125
0.4833984375
0.5078125
0.52734375
0.5712890625
0.6298828125
0.6787109375
0.732421875
0.7763671875
0.810546875
0.83984375
0.869140625
0.8935546875
0.927734375
0.9375
0.966796875
0.9912109375
0.99609375
0.99609375
1.005859375
1.005859375
1.0107421875
1.005859375
1.005859375
1.0009765625
0.9814453125
0.9716796875
0.9619140625
0.9326171875
0.9033203125
0.87890625
0.859375
0.849609375
0.83984375
0.8203125
0.8251953125
0.810546875
0.7958984375
0.80078125
0.78125
0.7861328125
0.78125
0.76171875
0.751953125
0.7421875
0.72265625
0.7080078125
0.6982421875
0.693359375
0.693359375
0.673828125
0.6591796875
0.6591796875
0.6298828125
0.6103515625
0.595703125
0.56640625
0.5419921875
0.5126953125
0.478515625
0.4736328125
0.44921875
0.439453125
0.4443359375
0.4443359375
0.4736328125
0.517578125
0.5517578125
0.60546875
0.64453125
0.693359375
0.7421875
0.7861328125
0.8203125
0.859375
0.8740234375
0.9033203125
0.9326171875
0.9375
0.9521484375
0.966796875
0.9619140625
0.9765625
0.9716796875
0.966796875
0.9619140625
0.947265625
0.9423828125
0.9375
0.91796875
0.908203125
0.9033203125
0.8740234375
0.869140625
0.8544921875
0.8447265625
0.83984375
0.830078125
0.8203125
0.8203125
0.7958984375
0.7958984375
0.791015625
0.7763671875
0.7666015625
0.76171875
0.7470703125
0.7421875
0.7177734375
0.6982421875
0.6787109375
0.6591796875
0.6396484375
0.6396484375
0.615234375
0.6103515625
0.6005859375
0.576171875
0.56640625
0.556640625
0.5322265625
0.517578125
0.5029296875
0.4833984375
0.48828125
0.458984375
0.4541015625
0.458984375
0.439453125
0.458984375
0.46875
0.5029296875
0.5517578125
0.6005859375
0.654296875
0.7177734375
0.7666015625
0.810546875
0.859375
0.87890625
0.908203125
0.927734375
0.9423828125
0.95703125
0.9716796875
0.9716796875
0.9814453125
0.9814453125
0.9814453125
0.9814453125
0.9716796875
0.9765625
0.9716796875
0.947265625
0.9423828125
0.9326171875
0.91796875
0.9033203125
0.8837890625
0.869140625
0.859375
0.8447265625
0.830078125
0.8349609375
0.810546875
0.8056640625
0.8056640625
0.7861328125
0.78125
0.7763671875
0.76171875
0.7666015625
0.7421875
0.72265625
0.7080078125
0.6884765625
0.673828125
0.6591796875
0.634765625
0.615234375
0.595703125
0.576171875
0.5615234375
0.556640625
0.5419921875
0.5322265625
0.517578125
0.498046875
0.4931640625
0.4638671875
0.4443359375
0.4296875
0.4150390625
0.4052734375
0.400390625
0.390625
0.380859375
0.3955078125
0.4052734375
0.439453125
0.4931640625
0.546875
0.615234375
0.6640625
0.7275390625
0.7763671875
0.8154296875
0.859375
0.87890625
0.8984375
0.9130859375
0.927734375
0.9375
0.947265625
0.9521484375
0.95703125
0.95703125
0.9521484375
0.947265625
0.9423828125
0.9326171875
0.9228515625
0.9130859375
0.9033203125
0.888671875
0.8740234375
0.869140625
0.8740234375
0.859375
0.8544921875
0.8447265625
0.830078125
0.8154296875
0.8056640625
0.7861328125
0.7861328125
0.7666015625
0.751953125
0.7421875
0.7275390625
0.712890625
0.7080078125
0.673828125
0.6591796875
0.64453125
0.625
0.615234375
0.6005859375
0.5859375
0.576171875
0.5517578125
0.5419921875
0.537109375
0.5126953125
0.5078125
0.5078125
0.4931640625
0.4931640625
0.4736328125
0.458984375
0.458984375
0.4345703125
0.4296875
0.4248046875
0.4052734375
0.400390625
0.4052734375
0.3955078125
0.41015625
0.4345703125
0.4736328125
0.5322265625
0.5908203125
0.64453125
0.6982421875
0.7421875
0.791015625
0.830078125
0.8642578125
0.908203125
0.9375
0.95703125
0.9716796875
0.986328125
0.9814453125
0.986328125
0.986328125
0.99609375
1.005859375
0.9912109375
0.9765625
0.9716796875
0.9521484375
0.9375
0.91796875
0.8984375
0.8935546875
0.87890625
0.869140625
0.859375
0.8349609375
0.8251953125
0.8251953125
0.7958984375
0.7763671875
0.76171875
0.7421875
0.732421875
0.712890625
0.6884765625
0.6640625
0.6494140625
0.6298828125
0.6103515625
0.5908203125
0.5712890625
0.5517578125
0.5322265625
0.517578125
0.5029296875
0.48828125
0.4736328125
0.458984375
0.4443359375
0.4345703125
0.4296875
0.419921875
0.41015625
0.41015625
0.4150390625
0.419921875
0.41015625
0.4052734375
0.4052734375
0.41015625
0.4345703125
0.4833984375
0.537109375
0.6005859375
0.6689453125
0.7421875
0.791015625
0.83984375
0.87890625
0.908203125
0.9326171875
0.9619140625
0.9765625
0.986328125
1.0009765625
1.005859375
1.0107421875
1.025390625
1.0107421875
1.015625
1.005859375
0.986328125
0.9716796875
0.9619140625
0.947265625
0.9326171875
0.9130859375
0.9033203125
0.8935546875
0.8642578125
0.8544921875
0.849609375
0.8251953125
0.8154296875
0.8056640625
0.7861328125
0.7763671875
0.7568359375
0.7421875
0.7275390625
0.703125
0.693359375
0.68359375
0.6494140625
0.6396484375
0.625
0.595703125
0.576171875
0.5615234375
0.537109375
0.517578125
0.5029296875
0.478515625
0.4638671875
0.4541015625
0.4345703125
0.4248046875
0.4150390625
0.41015625
0.400390625
0.3955078125
0.400390625
0.400390625
0.4052734375
0.44921875
0.4833984375
0.5419921875
0.60546875
0.6591796875
0.7275390625
0.7763671875
0.8154296875
0.8642578125
0.9033203125
0.927734375
0.9423828125
0.95703125
0.966796875
0.9716796875
0.9765625
0.986328125
0.99609375
0.986328125
0.9814453125
0.9814453125
0.966796875
0.966796875
0.947265625
0.9326171875
0.91796875
0.888671875
0.8740234375
0.8740234375
0.849609375
0.8447265625
0.8349609375
0.8203125
0.810546875
0.791015625
0.7763671875
0.7666015625
0.7421875
0.7177734375
0.703125
0.68359375
0.673828125
0.6591796875
0.6396484375
0.6298828125
0.6201171875
0.6005859375
0.5908203125
0.576171875
0.5615234375
0.556640625
0.5419921875
0.52734375
0.52734375
0.5029296875
0.4931640625
0.48828125
0.46875
0.4736328125
0.4541015625
0.4443359375
0.439453125
0.4296875
0.4345703125
0.439453125
0.439453125
0.4736328125
0.517578125
0.5712890625
0.6396484375
0.7080078125
0.751953125
0.80078125
0.83984375
0.869140625
0.9033203125
0.91796875
0.9423828125
0.9619140625
0.966796875
0.9765625
0.9912109375
0.986328125
0.9912109375
0.9912109375
0.986328125
0.9814453125
0.95703125
0.9375
0.9228515625
0.8935546875
0.8837890625
0.869140625
0.8447265625
0.8251953125
0.8154296875
0.791015625
0.771484375
0.76171875
0.751953125
0.7421875
0.7177734375
0.703125
0.6982421875
0.6689453125
0.654296875
0.634765625
0.6201171875
0.615234375
0.6103515625
0.595703125
0.5810546875
0.56640625
0.5517578125
0.5419921875
0.52734375
0.5224609375
0.5224609375
0.5078125
0.4931640625
0.48828125
0.4736328125
0.4736328125
0.4638671875
0.44921875
0.4541015625
0.44921875
0.44921875
0.4541015625
0.4541015625
0.4736328125
0.5029296875
0.5419921875
0.6005859375
0.654296875
0.712890625
0.771484375
0.8251953125
0.869140625
0.9228515625
0.947265625
0.9716796875
0.99609375
1.0009765625
1.015625
1.025390625
1.025390625
1.0302734375
1.0302734375
1.025390625
1.005859375
0.9912109375
0.9765625
0.966796875
0.9375
0.908203125
0.8935546875
0.8642578125
0.8447265625
0.8203125
0.80078125
0.7763671875
0.751953125
0.732421875
0.732421875
0.7080078125
0.6982421875
0.6884765625
0.6640625
0.6494140625
0.6396484375
0.6201171875
0.60546875
0.5908203125
0.56640625
0.556640625
0.5322265625
0.5224609375
0.5126953125
0.4833984375
0.46875
0.458984375
0.44921875
0.4443359375
0.4345703125
0.4296875
0.4248046875
0.4150390625
0.41015625
0.4150390625
0.4052734375
0.4052734375
0.400390625
0.400390625
0.400390625
0.4052734375
0.419921875
0.4443359375
0.48828125
0.546875
0.60546875
0.6591796875
0.7177734375
0.7861328125
0.8203125
0.8544921875
0.8984375
0.91796875
0.9423828125
0.9619140625
0.9716796875
0.9765625
0.9765625
0.9716796875
0.966796875
0.9619140625
0.947265625
0.9375
0.9228515625
0.908203125
0.8935546875
0.8740234375
0.8642578125
0.8544921875
0.8349609375
0.830078125
0.8154296875
0.80078125
0.791015625
0.76171875
0.7421875
0.732421875
0.7080078125
0.693359375
0.6689453125
0.6494140625
0.6396484375
0.6201171875
0.6103515625
0.6103515625
0.5859375
0.5859375
0.5908203125
0.5712890625
0.5615234375
0.5517578125
0.5419921875
0.537109375
0.52734375
0.5224609375
0.5224609375
0.5126953125
0.5126953125
0.5224609375
0.5029296875
0.498046875
0.5029296875
0.4931640625
0.4833984375
0.478515625
0.478515625
0.4931640625
0.517578125
0.56640625
0.6298828125
0.6689453125
0.72265625
0.7763671875
0.810546875
0.8447265625
0.8740234375
0.8935546875
0.91796875
0.927734375
0.9326171875
0.9375
0.9375
0.9326171875
0.927734375
0.908203125
0.9033203125
0.9033203125
0.87890625
0.869140625
0.849609375
0.8203125
0.8056640625
0.7763671875
0.76171875
0.7568359375
0.7275390625
0.7080078125
0.693359375
0.673828125
0.673828125
0.673828125
0.654296875
0.64453125
0.634765625
0.6201171875
0.625
0.6103515625
0.6103515625
0.6103515625
0.5859375
0.5810546875
0.5712890625
0.556640625
0.5517578125
0.546875
0.5322265625
0.52734375
0.5126953125
0.498046875
0.48828125
0.478515625
0.46875
0.4638671875
0.4541015625
0.4443359375
0.4443359375
0.458984375
0.4931640625
0.5419921875
0.5908203125
0.654296875
0.712890625
0.771484375
0.8203125
0.8447265625
0.8740234375
0.9130859375
0.9228515625
0.927734375
0.9326171875
0.9326171875
0.9423828125
0.9375
0.927734375
0.9326171875
0.908203125
0.908203125
0.8935546875
0.859375
0.830078125
0.8203125
0.7861328125
0.76171875
0.7421875
0.7177734375
0.712890625
0.693359375
0.673828125
0.6640625
0.64453125
0.6298828125
0.634765625
0.615234375
0.60546875
0.595703125
0.5810546875
0.5712890625
0.556640625
0.5517578125
0.556640625
0.5419921875
0.5322265625
0.5322265625
0.5224609375
0.5224609375
0.52734375
0.5126953125
0.5029296875
0.4931640625
0.48828125
0.5029296875
0.5029296875
0.517578125
0.5712890625
0.6103515625
0.6689453125
0.7421875
0.7958984375
0.8544921875
0.8984375
0.9375
0.9814453125
1.005859375
1.0205078125
1.044921875
1.0400390625
1.0546875
1.064453125
1.0546875
1.0595703125
1.0595703125
1.03515625
1.0302734375
1.015625
0.99609375
0.9716796875
0.9521484375
0.9228515625
0.908203125
0.87890625
0.8642578125
0.849609375
0.830078125
0.8203125
0.8056640625
0.791015625
0.7763671875
0.76171875
0.751953125
0.7373046875
0.7177734375
0.6982421875
0.6787109375
0.6591796875
0.654296875
0.6494140625
0.6298828125
0.6201171875
0.6005859375
0.5859375
0.5712890625
0.556640625
0.5517578125
0.537109375
0.5224609375
0.5126953125
0.517578125
0.498046875
0.498046875
0.517578125
0.537109375
0.5810546875
0.64453125
0.6982421875
0.7568359375
0.80078125
0.8544921875
0.9033203125
0.9326171875
0.9619140625
0.9912109375
1.0107421875
1.0205078125
1.0400390625
1.0498046875
1.064453125
1.064453125
1.0693359375
1.0791015625
1.0693359375
1.064453125
1.064453125
1.0498046875
1.044921875
1.0400390625
1.015625
1.005859375
0.986328125
0.966796875
0.9619140625
0.9423828125
0.9326171875
0.9326171875
0.9130859375
0.8984375
0.8935546875
0.8740234375
0.869140625
0.859375
0.8447265625
0.830078125
0.8056640625
0.791015625
0.78125
0.7568359375
0.751953125
0.7373046875
0.712890625
0.6982421875
0.6787109375
0.6494140625
0.634765625
0.60546875
0.595703125
0.5810546875
0.5615234375
0.546875
0.5322265625
0.5224609375
0.5126953125
0.5126953125
0.537109375
0.576171875
0.6298828125
0.673828125
0.732421875
0.7861328125
0.8251953125
0.8837890625
0.9130859375
0.9423828125
0.9814453125
0.99609375
1.025390625
1.0498046875
1.064453125
1.07421875
1.0791015625
1.083984375
1.0791015625
1.0693359375
1.0595703125
1.044921875
1.03515625
1.0205078125
1.0107421875
1.0009765625
0.986328125
0.9765625
0.95703125
0.9521484375
0.927734375
0.91796875
0.9130859375
0.8935546875
0.8837890625
0.8837890625
0.8642578125
0.8642578125
0.8544921875
0.83984375
0.8349609375
0.8154296875
0.7958984375
0.7861328125
0.7666015625
0.7470703125
0.7421875
0.72265625
0.72265625
0.712890625
0.6884765625
0.6787109375
0.673828125
0.654296875
0.6494140625
0.6298828125
0.6201171875
0.60546875
0.5859375
0.576171875
0.5712890625
0.546875
0.5322265625
0.517578125
0.5029296875
0.498046875
0.4833984375
0.4736328125
0.478515625
0.4736328125
0.5029296875
0.537109375
0.576171875
0.6396484375
0.6982421875
0.7373046875
0.791015625
0.830078125
0.869140625
0.908203125
0.927734375
0.9619140625
0.99609375
1.0009765625
1.0205078125
1.0302734375
1.03515625
1.044921875
1.0546875
1.0595703125
1.0595703125
1.064453125
1.0595703125
1.0693359375
1.0498046875
1.0400390625
1.0205078125
1.005859375
0.9912109375
0.9814453125
0.966796875
0.95703125
0.947265625
0.9326171875
0.9228515625
0.908203125
0.8984375
0.8984375
0.8837890625
0.869140625
0.8544921875
0.83984375
0.8349609375
0.830078125
0.8251953125
0.810546875
0.80078125
0.791015625
0.771484375
0.76171875
0.7373046875
0.7275390625
0.712890625
0.693359375
0.6982421875
0.6787109375
0.6689453125
0.654296875
0.6298828125
0.625
0.595703125
0.5810546875
0.5712890625
0.5517578125
0.5419921875
0.537109375
0.5126953125
0.5029296875
0.4931640625
0.4736328125
0.458984375
0.439453125
0.4248046875
0.4296875
0.4248046875
0.44921875
0.498046875
0.5224609375
0.576171875
0.6298828125
0.68359375
0.7421875
0.7861328125
0.830078125
0.8642578125
0.8984375
0.9326171875
0.95703125
0.966796875
0.9912109375
1.0107421875
1.015625
1.0302734375
1.03515625
1.03515625
1.03515625
1.0302734375
1.0302734375
1.0302734375
1.0107421875
1.005859375
0.9912109375
0.9765625
0.9765625
0.966796875
0.95703125
0.95703125
0.947265625
0.9375
0.9423828125
0.927734375
0.91796875
0.91796875
0.8984375
0.8935546875
0.8837890625
0.8642578125
0.859375
0.849609375
0.8349609375
0.8251953125
0.80078125
0.7861328125
0.78125
0.7568359375
0.7470703125
0.7421875
0.7177734375
0.7080078125
0.68359375
0.6591796875
0.634765625
0.615234375
0.595703125
0.576171875
0.5517578125
0.537109375
0.5224609375
0.5029296875
0.48828125
0.4833984375
0.4638671875
0.44921875
0.4443359375
0.4296875
0.4248046875
0.41015625
0.400390625
0.3857421875
0.37109375
0.361328125
0.3564453125
0.361328125
0.390625
0.4296875
0.478515625
0.537109375
0.5908203125
0.64453125
0.703125
0.7421875
0.791015625
0.8251953125
0.8544921875
0.8935546875
0.927734375
0.9423828125
0.95703125
0.9716796875
0.9814453125
0.99609375
1.0009765625
0.9912109375
1.0009765625
0.99609375
0.9912109375
0.9912109375
0.9716796875
0.95703125
0.9521484375
0.9326171875
0.91796875
0.908203125
0.8984375
0.888671875
0.87890625
0.8642578125
0.859375
0.8447265625
0.849609375
0.849609375
0.8349609375
0.830078125
0.810546875
0.80078125
0.7958984375
0.7861328125
0.7763671875
0.7568359375
0.7421875
0.732421875
0.72265625
0.7080078125
0.693359375
0.6884765625
0.673828125
0.6591796875
0.64453125
0.6298828125
0.615234375
0.5908203125
0.5712890625
0.576171875
0.546875
0.5322265625
0.537109375
0.5078125
0.5029296875
0.5029296875
0.4931640625
0.498046875
0.517578125
0.5517578125
0.60546875
0.6396484375
0.68359375
0.7373046875
0.771484375
0.80078125
0.849609375
0.8642578125
0.888671875
0.9130859375
0.9228515625
0.9423828125
0.9521484375
0.9619140625
0.9716796875
0.9716796875
0.9814453125
0.9765625
0.9619140625
0.95703125
0.9375
0.9228515625
0.9130859375
0.8935546875
0.87890625
0.8642578125
0.849609375
0.83984375
0.8251953125
0.8154296875
0.8056640625
0.80078125
0.791015625
0.7861328125
0.78125
0.771484375
0.7666015625
0.7568359375
0.751953125
0.751953125
0.7373046875
0.7373046875
0.732421875
0.712890625
0.7080078125
0.703125
0.68359375
0.673828125
0.654296875
0.634765625
0.6103515625
0.5859375
0.5712890625
0.5615234375
0.5322265625
0.5224609375
0.517578125
0.4931640625
0.4833984375
0.478515625
0.4833984375
0.498046875
0.5224609375
0.5615234375
0.625
0.6689453125
0.7177734375
0.76171875
0.7958984375
0.8447265625
0.87890625
0.8984375
0.9228515625
0.947265625
0.95703125
0.966796875
0.9716796875
0.9765625
0.99609375
0.986328125
0.99609375
1.0009765625
0.986328125
0.9814453125
0.966796875
0.95703125
0.9521484375
0.9326171875
0.9228515625
0.9130859375
0.8837890625
0.87890625
0.8740234375
0.849609375
0.83984375
0.830078125
0.8154296875
0.8154296875
0.7958984375
0.7763671875
0.771484375
0.7568359375
0.7373046875
0.7373046875
0.7080078125
0.703125
0.6982421875
0.6787109375
0.6640625
0.654296875
0.634765625
0.6201171875
0.595703125
0.5859375
0.5712890625
0.5419921875
0.52734375
0.517578125
0.498046875
0.4931640625
0.5126953125
0.5224609375
0.5419921875
0.576171875
0.615234375
0.654296875
0.6884765625
0.72265625
0.751953125
0.78125
0.8056640625
0.8251953125
0.8447265625
0.849609375
0.859375
0.8642578125
0.8642578125
0.8642578125
0.8642578125
0.8642578125
0.8642578125
0.8544921875
0.8447265625
0.8349609375
0.8203125
0.810546875
0.7958984375
0.78125
0.771484375
0.7568359375
0.7470703125
0.7275390625
0.7177734375
0.7177734375
0.7080078125
0.7080078125
0.7080078125
0.6982421875
0.693359375
0.6884765625
0.6787109375
0.6787109375
0.6689453125
0.654296875
0.6494140625
0.6298828125
0.6201171875
0.6298828125
0.60546875
0.5908203125
0.5810546875
0.556640625
0.556640625
0.537109375
0.517578125
0.517578125
0.4931640625
0.4833984375
0.478515625
0.458984375
0.458984375
0.4541015625
0.44921875
0.478515625
0.5126953125
0.556640625
0.60546875
0.6494140625
0.7080078125
0.7666015625
0.7958984375
0.8349609375
0.87890625
0.8984375
0.9228515625
0.9423828125
0.947265625
0.9521484375
0.9521484375
0.9521484375
0.9619140625
0.95703125
0.95703125
0.9619140625
0.947265625
0.9326171875
0.91796875
0.9033203125
0.8935546875
0.8837890625
0.8642578125
0.8642578125
0.83984375
0.8251953125
0.810546875
0.7958984375
0.791015625
0.7763671875
0.7568359375
0.7470703125
0.7421875
0.72265625
0.7080078125
0.693359375
0.6787109375
0.6787109375
0.654296875
0.6396484375
0.6201171875
0.6005859375
0.5810546875
0.5615234375
0.546875
0.537109375
0.5322265625
0.5126953125
0.5078125
0.4931640625
0.48828125
0.4833984375
0.4638671875
0.4638671875
0.4638671875
0.44921875
0.44921875
0.4541015625
0.4638671875
0.4931640625
0.5322265625
0.5810546875
0.6396484375
0.68359375
0.732421875
0.78125
0.8056640625
0.83984375
0.87890625
0.8984375
0.91796875
0.9423828125
0.9423828125
0.95703125
0.95703125
0.966796875
0.9716796875
0.95703125
0.95703125
0.9521484375
0.927734375
0.91796875
0.9130859375
0.888671875
0.869140625
0.859375
0.83984375
0.8203125
0.80078125
0.7861328125
0.7861328125
0.76171875
0.76171875
0.7421875
0.72265625
0.7177734375
0.7080078125
0.6884765625
0.68359375
0.6640625
0.6591796875
0.6494140625
0.625
0.6103515625
0.595703125
0.5712890625
0.556640625
0.537109375
0.5224609375
0.5078125
0.48828125
0.478515625
0.478515625
0.458984375
0.4443359375
0.4541015625
0.4345703125
0.419921875
0.41015625
0.4052734375
0.400390625
0.41015625
0.4345703125
0.478515625
0.5322265625
0.5810546875
0.634765625
0.6884765625
0.7373046875
0.791015625
0.8154296875
0.8447265625
0.87890625
0.888671875
0.91796875
0.927734375
0.9326171875
0.9375
0.927734375
0.927734375
0.91796875
0.9033203125
0.888671875
0.8740234375
0.8544921875
0.83984375
0.8251953125
0.8056640625
0.7958984375
0.7763671875
0.7666015625
0.76171875
0.7373046875
0.7373046875
0.732421875
0.7080078125
0.693359375
0.6884765625
0.6689453125
0.6640625
0.6494140625
0.634765625
0.6298828125
0.6005859375
0.5810546875
0.5712890625
0.546875
0.5322265625
0.52734375
0.5078125
0.4931640625
0.478515625
0.46875
0.4638671875
0.4541015625
0.44921875
0.458984375
0.4345703125
0.4345703125
0.439453125
0.4248046875
0.4150390625
0.4296875
0.419921875
0.4345703125
0.44921875
0.48828125
0.546875
0.6005859375
0.6494140625
0.72265625
0.7568359375
0.80078125
0.83984375
0.869140625
0.8984375
0.927734375
0.9326171875
0.95703125
0.95703125
0.9521484375
0.9619140625
0.947265625
0.947265625
0.9423828125
0.91796875
0.9033203125
0.8837890625
0.8642578125
0.83984375
0.830078125
0.8154296875
0.8056640625
0.78125
0.7666015625
0.7666015625
0.7373046875
0.72265625
0.7177734375
0.6982421875
0.6884765625
0.6689453125
0.654296875
0.64453125
0.6298828125
0.615234375
0.615234375
0.595703125
0.5810546875
0.5859375
0.5615234375
0.556640625
0.5419921875
0.52734375
0.5224609375
0.5078125
0.4931640625
0.48828125
0.4736328125
0.4638671875
0.4541015625
0.4443359375
0.439453125
0.4296875
0.419921875
0.4443359375
0.4443359375
0.4541015625
0.4931640625
0.537109375
0.6005859375
0.673828125
0.72265625
0.7666015625
0.8154296875
0.849609375
0.8837890625
0.9033203125
0.9228515625
0.9423828125
0.95703125
0.9619140625
0.9814453125
0.966796875
0.95703125
0.9619140625
0.9423828125
0.9228515625
0.91796875
0.8935546875
0.8837890625
0.8642578125
0.8447265625
0.830078125
0.810546875
0.80078125
0.7861328125
0.771484375
0.7568359375
0.76171875
0.7421875
0.72265625
0.712890625
0.693359375
0.6884765625
0.6689453125
0.64453125
0.6298828125
0.615234375
0.5908203125
0.5859375
0.5615234375
0.546875
0.546875
0.5224609375
0.5078125
0.498046875
0.4833984375
0.4833984375
0.46875
0.46875
0.4638671875
0.4541015625
0.458984375
0.4736328125
0.4638671875
0.478515625
0.48828125
0.5078125
0.5615234375
0.60546875
0.6640625
0.72265625
0.76171875
0.810546875
0.859375
0.87890625
0.9033203125
0.9326171875
0.9375
0.947265625
0.95703125
0.95703125
0.95703125
0.947265625
0.947265625
0.947265625
0.927734375
0.91796875
0.9033203125
0.87890625
0.869140625
0.859375
0.83984375
0.830078125
0.8056640625
0.7861328125
0.7666015625
0.76171875
0.751953125
0.7421875
0.7275390625
0.72265625
0.7080078125
0.6982421875
0.6884765625
0.6787109375
0.6689453125
0.6591796875
0.64453125
0.634765625
0.64453125
0.625
0.60546875
0.6005859375
0.576171875
0.5712890625
0.5712890625
0.5517578125
0.5517578125
0.537109375
0.52734375
0.5224609375
0.5126953125
0.5078125
0.546875
0.5810546875
0.6298828125
0.6787109375
0.7275390625
0.78125
0.8349609375
0.8642578125
0.8984375
0.9228515625
0.9375
0.95703125
0.966796875
0.9765625
0.99609375
0.986328125
0.9912109375
0.9912109375
0.9765625
0.9716796875
0.9619140625
0.947265625
0.9375
0.9228515625
0.8984375
0.8984375
0.87890625
0.869140625
0.8642578125
0.8447265625
0.8447265625
0.8447265625
0.830078125
0.810546875
0.7958984375
0.78125
0.7763671875
0.7568359375
0.751953125
0.7568359375
0.7275390625
0.7275390625
0.7177734375
0.693359375
0.68359375
0.6640625
0.64453125
0.6396484375
0.6103515625
0.6005859375
0.6005859375
0.5712890625
0.5517578125
0.5517578125
0.537109375
0.5517578125
0.5810546875
0.6201171875
0.6787109375
0.72265625
0.7763671875
0.8251953125
0.8544921875
0.9033203125
0.9326171875
0.9521484375
0.9814453125
1.005859375
1.015625
1.03515625
1.0400390625
1.0400390625
1.044921875
1.044921875
1.044921875
1.0498046875
1.0400390625
1.0205078125
1.0107421875
0.99609375
0.9814453125
0.966796875
0.95703125
0.947265625
0.9326171875
0.9228515625
0.9130859375
0.9033203125
0.888671875
0.888671875
0.87890625
0.8740234375
0.8642578125
0.8544921875
0.849609375
0.849609375
0.8447265625
0.8447265625
0.8349609375
0.8203125
0.8203125
0.80078125
0.791015625
0.791015625
0.771484375
0.771484375
0.7568359375
0.732421875
0.72265625
0.6982421875
0.6787109375
0.673828125
0.6689453125
0.68359375
0.712890625
0.732421875
0.7763671875
0.8154296875
0.8544921875
0.8984375
0.9326171875
0.95703125
0.9912109375
1.0107421875
1.03515625
1.044921875
1.0546875
1.064453125
1.0791015625
1.0791015625
1.083984375
1.0888671875
1.083984375
1.083984375
1.0791015625
1.07421875
1.07421875
1.064453125
1.0595703125
1.0498046875
1.0302734375
1.0302734375
1.0205078125
1.005859375
1.0009765625
0.9912109375
0.9765625
0.9765625
0.95703125
0.9423828125
0.947265625
0.927734375
0.9130859375
0.908203125
0.888671875
0.8837890625
0.8740234375
0.859375
0.8544921875
0.8447265625
0.830078125
0.830078125
0.810546875
0.80078125
0.791015625
0.7666015625
0.751953125
0.7470703125
0.7177734375
0.7080078125
0.693359375
0.6640625
0.6494140625
0.6298828125
0.6103515625
0.6005859375
0.5810546875
0.576171875
0.5859375
0.6103515625
0.64453125
0.6787109375
0.72265625
0.771484375
0.8154296875
0.849609375
0.8935546875
0.9228515625
0.95703125
0.9912109375
1.005859375
1.03515625
1.0546875
1.064453125
1.0791015625
1.0888671875
1.0888671875
1.1083984375
1.1083984375
1.103515625
1.1083984375
1.0986328125
1.0888671875
1.0791015625
1.064453125
1.0595703125
1.0498046875
1.03515625
1.025390625
1.0107421875
0.99609375
0.9912109375
0.9716796875
0.95703125
0.947265625
0.9326171875
0.9228515625
0.908203125
0.8984375
0.8837890625
0.869140625
0.8642578125
0.849609375
0.83984375
0.830078125
0.830078125
0.810546875
0.8056640625
0.8056640625
0.7861328125
0.7763671875
0.771484375
0.751953125
0.7421875
0.7275390625
0.7177734375
0.7080078125
0.68359375
0.673828125
0.6689453125
0.64453125
0.634765625
0.625
0.6005859375
0.595703125
0.576171875
0.556640625
0.546875
0.5224609375
0.5078125
0.5029296875
0.4833984375
0.4736328125
0.478515625
0.5029296875
0.5419921875
0.595703125
0.6396484375
0.6884765625
0.732421875
0.771484375
0.8251953125
0.8544921875
0.888671875
0.91796875
0.9423828125
0.9619140625
0.9912109375
1.005859375
1.0107421875
1.0205078125
1.0205078125
1.03515625
1.0302734375
1.025390625
1.015625
1.0107421875
0.99609375
0.986328125
0.9765625
0.9619140625
0.95703125
0.947265625
0.9375
0.927734375
0.91796875
0.9228515625
0.908203125
0.9033203125
0.8984375
0.8837890625
0.8837890625
0.87890625
0.8642578125
0.8642578125
0.8544921875
0.8447265625
0.8349609375
0.8203125
0.810546875
0.7958984375
0.771484375
0.76171875
0.7470703125
0.732421875
0.7177734375
0.703125
0.68359375
0.673828125
0.6640625
0.6494140625
0.64453125
0.625
0.615234375
0.60546875
0.5810546875
0.5615234375
0.546875
0.5322265625
0.517578125
0.5078125
0.498046875
0.48828125
0.478515625
0.4638671875
0.458984375
0.4443359375
0.4296875
0.439453125
0.4150390625
0.4150390625
0.4150390625
0.4296875
0.46875
0.5126953125
0.5615234375
0.625
0.68359375
0.72265625
0.78125
0.8154296875
0.8544921875
0.8935546875
0.91796875
0.9423828125
0.966796875
0.9765625
0.99609375
1.005859375
1.0107421875
1.025390625
1.0205078125
1.025390625
1.025390625
1.015625
1.015625
1.0009765625
0.986328125
0.9814453125
0.9619140625
0.9521484375
0.947265625
0.9326171875
0.927734375
0.927734375
0.908203125
0.8984375
0.9033203125
0.888671875
0.8837890625
0.8740234375
0.869140625
0.8642578125
0.849609375
0.8447265625
0.830078125
0.8154296875
0.8056640625
0.791015625
0.7763671875
0.7568359375
0.7470703125
0.7373046875
0.732421875
0.72265625
0.7080078125
0.6982421875
0.6787109375
0.673828125
0.6640625
0.6396484375
0.6298828125
0.615234375
0.6005859375
0.5908203125
0.56640625
0.5517578125
0.5419921875
0.52734375
0.5224609375
0.5078125
0.48828125
0.4833984375
0.498046875
0.5029296875
0.5322265625
0.5615234375
0.6005859375
0.6494140625
0.693359375
0.7373046875
0.791015625
0.8154296875
0.8447265625
0.8837890625
0.8984375
0.9228515625
0.9423828125
0.9423828125
0.9521484375
0.95703125
0.9619140625
0.966796875
0.9619140625
0.9619140625
0.966796875
0.9521484375
0.9521484375
0.9423828125
0.91796875
0.908203125
0.9033203125
0.87890625
0.8740234375
0.8642578125
0.849609375
0.83984375
0.8203125
0.8154296875
0.8251953125
0.8056640625
0.7958984375
0.791015625
0.771484375
0.7666015625
0.7568359375
0.7470703125
0.7421875
0.72265625
0.712890625
0.712890625
0.6884765625
0.6787109375
0.6591796875
0.634765625
0.6201171875
0.60546875
0.5859375
0.5810546875
0.5615234375
0.546875
0.537109375
0.5126953125
0.498046875
0.4833984375
0.458984375
0.4443359375
0.439453125
0.419921875
0.41015625
0.390625
0.380859375
0.3857421875
0.400390625
0.4248046875
0.4638671875
0.5126953125
0.5615234375
0.6103515625
0.6591796875
0.703125
0.7373046875
0.771484375
0.8056640625
0.8447265625
0.869140625
0.9033203125
0.908203125
0.9228515625
0.9423828125
0.9423828125
0.947265625
0.95703125
0.9521484375
0.95703125
0.947265625
0.9375
0.9326171875
0.908203125
0.8984375
0.8984375
0.869140625
0.849609375
0.83984375
0.8154296875
0.8056640625
0.7958984375
0.78125
0.78125
0.7666015625
0.7470703125
0.7373046875
0.72265625
0.703125
0.703125
0.68359375
0.673828125
0.6591796875
0.64453125
0.625
0.60546875
0.5859375
0.5712890625
0.5517578125
0.537109375
0.52734375
0.5078125
0.4931640625
0.4833984375
0.4638671875
0.458984375
0.4638671875
0.439453125
0.4248046875
0.4150390625
0.4052734375
0.3955078125
0.3857421875
0.380859375
0.3857421875
0.37109375
0.3955078125
0.4248046875
0.46875
0.537109375
0.595703125
0.6396484375
0.703125
0.7470703125
0.7861328125
0.830078125
0.849609375
0.87890625
0.908203125
0.91796875
0.9326171875
0.947265625
0.947265625
0.95703125
0.95703125
0.9619140625
0.95703125
0.9423828125
0.9423828125
0.9423828125
0.91796875
0.8935546875
0.869140625
0.8544921875
0.830078125
0.8154296875
0.7958984375
0.7861328125
0.771484375
0.7568359375
0.7470703125
0.732421875
0.72265625
0.7080078125
0.6982421875
0.6884765625
0.6787109375
0.6640625
0.6494140625
0.634765625
0.6201171875
0.60546875
0.595703125
0.576171875
0.5712890625
0.5517578125
0.537109375
0.5322265625
0.5078125
0.498046875
0.478515625
0.46875
0.458984375
0.4443359375
0.4345703125
0.439453125
0.4248046875
0.4248046875
0.4248046875
0.4052734375
0.400390625
0.4052734375
0.3955078125
0.4150390625
0.4345703125
0.4638671875
0.52734375
0.576171875
0.634765625
0.6982421875
0.732421875
0.78125
0.8349609375
0.859375
0.8837890625
0.908203125
0.9130859375
0.9423828125
0.9423828125
0.9521484375
0.95703125
0.9521484375
0.95703125
0.95703125
0.9423828125
0.9375
0.9375
0.91796875
0.8984375
0.87890625
0.8642578125
0.849609375
0.8349609375
0.8203125
0.8154296875
0.7958984375
0.78125
0.7666015625
0.751953125
0.7421875
0.7373046875
0.72265625
0.703125
0.68359375
0.68359375
0.6787109375
0.6494140625
0.6396484375
0.6298828125
0.60546875
0.595703125
0.5859375
0.5615234375
0.5419921875
0.517578125
0.498046875
0.48828125
0.4638671875
0.44921875
0.4443359375
0.4248046875
0.41015625
0.4052734375
0.390625
0.380859375
0.380859375
0.37109375
0.3662109375
0.361328125
0.3662109375
0.3759765625
0.400390625
0.4443359375
0.48828125
0.5419921875
0.595703125
0.654296875
0.6982421875
0.7470703125
0.791015625
0.8203125
0.8642578125
0.8740234375
0.8984375
0.91796875
0.9228515625
0.9326171875
0.9375
0.9326171875
0.927734375
0.9326171875
0.927734375
0.9130859375
0.9033203125
0.888671875
0.87890625
0.8544921875
0.83984375
0.8203125
0.80078125
0.7861328125
0.7861328125
0.76171875
0.7568359375
0.7373046875
0.72265625
0.72265625
0.6982421875
0.693359375
0.6884765625
0.6640625
0.64453125
0.6396484375
0.615234375
0.6005859375
0.595703125
0.576171875
0.5615234375
0.5419921875
0.517578125
0.5078125
0.4833984375
0.4736328125
0.46875
0.44921875
0.4443359375
0.439453125
0.419921875
0.4150390625
0.41015625
0.3955078125
0.3955078125
0.3955078125
0.380859375
0.390625
0.380859375
0.380859375
0.4052734375
0.4345703125
0.4931640625
0.556640625
0.60546875
0.6689453125
0.7177734375
0.7666015625
0.80078125
0.830078125
0.859375
0.8984375
0.9130859375
0.9326171875
0.9423828125
0.9423828125
0.9423828125
0.9423828125
0.9423828125
0.9423828125
0.927734375
0.91796875
0.908203125
0.8837890625
0.8740234375
0.8642578125
0.83984375
0.8203125
0.810546875
0.791015625
0.7861328125
0.7666015625
0.751953125
0.7373046875
0.72265625
0.7080078125
0.693359375
0.6787109375
0.6689453125
0.654296875
0.6396484375
0.6201171875
0.6103515625
0.5908203125
0.5810546875
0.56640625
0.5517578125
0.5419921875
0.546875
0.5419921875
0.5419921875
0.52734375
0.5224609375
0.517578125
0.5126953125
0.4931640625
0.48828125
0.478515625
0.478515625
0.4736328125
0.478515625
0.4541015625
0.458984375
0.458984375
0.458984375
0.48828125
0.5419921875
0.6103515625
0.6494140625
0.6982421875
0.76171875
0.8154296875
0.859375
0.888671875
0.9228515625
0.9423828125
0.9619140625
0.986328125
0.986328125
1.0009765625
1.005859375
1.0009765625
0.99609375
0.9814453125
0.966796875
0.966796875
0.95703125
0.9423828125
0.91796875
0.8935546875
0.8740234375
0.8544921875
0.849609375
0.8251953125
0.791015625
0.7666015625
0.76171875
0.7373046875
0.7373046875
0.72265625
0.7080078125
0.703125
0.6884765625
0.6787109375
0.6787109375
0.654296875
0.6201171875
0.595703125
0.56640625
0.5419921875
0.5224609375
0.5029296875
0.4833984375
0.4638671875
0.4443359375
0.4296875
0.419921875
0.419921875
0.41015625
0.4052734375
0.419921875
0.4296875
0.439453125
0.44921875
0.46875
0.4833984375
0.48828125
0.5224609375
0.5712890625
0.6298828125
0.6884765625
0.7421875
0.7763671875
0.8251953125
0.869140625
0.9130859375
0.9326171875
0.966796875
0.9814453125
0.9814453125
0.9765625
0.9716796875
0.9619140625
0.95703125
0.9619140625
0.9521484375
0.9326171875
0.9228515625
0.9033203125
0.9033203125
0.9033203125
0.9130859375
0.91796875
0.9033203125
0.8935546875
0.869140625
0.8544921875
0.83984375
0.8203125
0.810546875
0.810546875
0.810546875
0.810546875
0.7666015625
0.7470703125
0.7275390625
0.712890625
0.703125
0.703125
0.68359375
0.6787109375
0.6494140625
0.6298828125
0.60546875
0.5908203125
0.5859375
0.576171875
0.56640625
0.546875
0.5419921875
0.52734375
0.5029296875
0.5029296875
0.478515625
0.478515625
0.478515625
0.5029296875
0.5224609375
0.5712890625
0.6396484375
0.6884765625
0.732421875
0.78125
0.830078125
0.869140625
0.927734375
0.966796875
0.986328125
1.005859375
1.015625
1.025390625
1.0400390625
1.0400390625
1.044921875
1.0400390625
1.0498046875
1.0546875
1.0498046875
1.0302734375
1.0107421875
0.986328125
0.966796875
0.947265625
0.927734375
0.91796875
0.9033203125
0.8837890625
0.8642578125
0.8349609375
0.8154296875
0.7958984375
0.791015625
0.7958984375
0.78125
0.7666015625
0.7470703125
0.732421875
0.7275390625
0.703125
0.6689453125
0.6396484375
0.60546875
0.576171875
0.5517578125
0.537109375
0.5078125
0.48828125
0.46875
0.44921875
0.4296875
0.4052734375
0.3857421875
0.37109375
0.3515625
0.361328125
0.3857421875
0.4150390625
0.419921875
0.439453125
0.4736328125
0.5322265625
0.5859375
0.654296875
0.7177734375
0.7861328125
0.8349609375
0.8837890625
0.927734375
0.9521484375
0.9765625
0.99609375
1.015625
1.03515625
1.025390625
1.03515625
1.0400390625
1.044921875
1.044921875
1.0546875
1.0595703125
1.0595703125
1.03515625
1.015625
1.025390625
1.025390625
1.005859375
0.9912109375
0.986328125
0.9814453125
0.966796875
0.9619140625
0.9521484375
0.9326171875
0.908203125
0.8984375
0.8740234375
0.859375
0.849609375
0.8251953125
0.8154296875
0.830078125
0.8251953125
0.810546875
0.8056640625
0.7763671875
0.771484375
0.7568359375
0.7470703125
0.7373046875
0.7080078125
0.703125
0.673828125
0.6494140625
0.634765625
0.60546875
0.576171875
0.56640625
0.5419921875
0.52734375
0.517578125
0.5078125
0.498046875
0.4931640625
0.4931640625
0.5029296875
0.546875
0.60546875
0.654296875
0.6884765625
0.7373046875
0.7958984375
0.849609375
0.87890625
0.9033203125
0.927734375
0.947265625
0.9619140625
0.9765625
0.9912109375
1.0009765625
1.005859375
1.0009765625
0.9912109375
0.9912109375
0.9912109375
0.9912109375
0.9814453125
0.986328125
0.966796875
0.9423828125
0.9033203125
0.869140625
0.83984375
0.8154296875
0.8203125
0.8349609375
0.830078125
0.8251953125
0.8154296875
0.8056640625
0.7958984375
0.80078125
0.791015625
0.78125
0.78125
0.76171875
0.751953125
0.751953125
0.7275390625
0.712890625
0.6982421875
0.693359375
0.6787109375
0.6396484375
0.60546875
0.576171875
0.5517578125
0.5322265625
0.517578125
0.5078125
0.5029296875
0.46875
0.4638671875
0.458984375
0.439453125
0.4443359375
0.439453125
0.4248046875
0.4296875
0.4296875
0.439453125
0.4736328125
0.5029296875
0.5517578125
0.6103515625
0.6591796875
0.72265625
0.7861328125
0.8251953125
0.869140625
0.9130859375
0.9423828125
0.9814453125
0.99609375
1.015625
1.0302734375
1.0205078125
1.025390625
1.0205078125
1.025390625
1.015625
1.005859375
0.99609375
0.9814453125
0.9716796875
0.95703125
0.9423828125
0.9228515625
0.8984375
0.87890625
0.8642578125
0.8544921875
0.8349609375
0.8251953125
0.8251953125
0.8203125
0.7958984375
0.791015625
0.791015625
0.791015625
0.7763671875
0.7763671875
0.771484375
0.7568359375
0.751953125
0.7470703125
0.751953125
0.732421875
0.7177734375
0.7080078125
0.673828125
0.6640625
0.654296875
0.634765625
0.6103515625
0.595703125
0.5859375
0.576171875
0.5419921875
0.5126953125
0.46875
0.4248046875
0.3955078125
0.37109375
0.3662109375
0.390625
0.4345703125
0.4736328125
0.5322265625
0.5908203125
0.654296875
0.7275390625
0.7763671875
0.8203125
0.869140625
0.888671875
0.91796875
0.9326171875
0.9375
0.9521484375
0.95703125
0.9765625
0.99609375
0.966796875
0.9619140625
0.9521484375
0.9326171875
0.9375
0.908203125
0.888671875
0.87890625
0.869140625
0.8740234375
0.87890625
0.869140625
0.8642578125
0.8544921875
0.83984375
0.8349609375
0.8349609375
0.8203125
0.80078125
0.7861328125
0.7763671875
0.7666015625
0.7568359375
0.7373046875
0.72265625
0.712890625
0.703125
0.673828125
0.6591796875
0.6396484375
0.6396484375
0.625
0.6103515625
0.60546875
0.5859375
0.576171875
0.556640625
0.537109375
0.52734375
0.5126953125
0.4833984375
0.478515625
0.46875
0.46875
0.4931640625
0.5322265625
0.576171875
0.60546875
0.6591796875
0.712890625
0.7568359375
0.7861328125
0.8251953125
0.8642578125
0.8984375
0.91796875
0.927734375
0.9326171875
0.9521484375
0.95703125
0.966796875
0.9716796875
0.9765625
0.986328125
0.9912109375
0.9814453125
0.9716796875
0.95703125
0.9521484375
0.947265625
0.9326171875
0.9228515625
0.8935546875
0.87890625
0.859375
0.8544921875
0.8154296875
0.80078125
0.7568359375
0.72265625
0.693359375
0.6640625
0.6640625
0.6689453125
0.673828125
0.673828125
0.6787109375
0.6689453125
0.6591796875
0.6494140625
0.64453125
0.6298828125
0.60546875
0.595703125
0.5859375
0.576171875
0.556640625
0.5322265625
0.5224609375
0.5029296875
0.478515625
0.439453125
0.4443359375
0.419921875
0.4052734375
0.4052734375
0.419921875
0.439453125
0.48828125
0.537109375
0.5908203125
0.64453125
0.7080078125
0.7666015625
0.8203125
0.849609375
0.8837890625
0.9130859375
0.9375
0.9619140625
0.9814453125
1.0009765625
1.005859375
1.0107421875
1.015625
1.015625
1.0107421875
1.0009765625
0.99609375
0.9912109375
0.99609375
0.9912109375
0.9716796875
0.966796875
0.9521484375
0.9375
0.9326171875
0.9130859375
0.908203125
0.8935546875
0.8837890625
0.869140625
0.8544921875
0.8447265625
0.8154296875
0.8056640625
0.791015625
0.78125
0.78125
0.76171875
0.751953125
0.72265625
0.7177734375
0.703125
0.673828125
0.654296875
0.634765625
0.625
0.6005859375
0.6005859375
0.576171875
0.56640625
0.556640625
0.537109375
0.5126953125
0.5078125
0.4833984375
0.458984375
0.4443359375
0.439453125
0.4248046875
0.439453125
0.4736328125
0.5078125
0.5517578125
0.6103515625
0.673828125
0.7275390625
0.771484375
0.78125
0.80078125
0.8154296875
0.8349609375
0.8837890625
0.91796875
0.9423828125
0.966796875
0.9814453125
0.99609375
1.005859375
1.015625
1.0107421875
1.0107421875
0.99609375
0.9814453125
0.9814453125
0.9521484375
0.9521484375
0.9423828125
0.947265625
0.927734375
0.8984375
0.8740234375
0.8740234375
0.859375
0.830078125
0.7958984375
0.7666015625
0.7470703125
0.7275390625
0.7080078125
0.6884765625
0.6787109375
0.6689453125
0.6591796875
0.6494140625
0.6494140625
0.6494140625
0.654296875
0.6591796875
0.673828125
0.68359375
0.6689453125
0.6494140625
0.64453125
0.634765625
0.6103515625
0.6103515625
0.5908203125
0.5859375
0.5810546875
0.556640625
0.537109375
0.5224609375
0.498046875
0.48828125
0.4736328125
0.458984375
0.46875
0.478515625
0.5126953125
0.5419921875
0.595703125
0.654296875
0.6982421875
0.7568359375
0.7958984375
0.8251953125
0.859375
0.8984375
0.9228515625
0.9326171875
0.947265625
0.9619140625
0.9765625
0.986328125
0.966796875
0.95703125
0.9619140625
0.9619140625
0.9716796875
0.95703125
0.9423828125
0.9228515625
0.9130859375
0.8837890625
0.8544921875
0.8203125
0.7958984375
0.771484375
0.7470703125
0.7275390625
0.712890625
0.6982421875
0.68359375
0.6689453125
0.6689453125
0.673828125
0.6689453125
0.6494140625
0.6298828125
0.60546875
0.5908203125
0.5712890625
0.5810546875
0.5810546875
0.5908203125
0.5810546875
0.576171875
0.5810546875
0.56640625
0.5615234375
0.5517578125
0.5419921875
0.517578125
0.5029296875
0.498046875
0.48828125
0.48828125
0.498046875
0.5078125
0.4638671875
0.4443359375
0.44921875
0.4443359375
0.478515625
0.5224609375
0.556640625
0.60546875
0.673828125
0.7275390625
0.7958984375
0.8447265625
0.888671875
0.9228515625
0.9423828125
0.9716796875
0.986328125
1.005859375
1.015625
1.015625
1.015625
1.015625
1.0205078125
1.005859375
1.0009765625
0.9912109375
0.966796875
0.947265625
0.9228515625
0.908203125
0.8984375
0.87890625
0.8544921875
0.83984375
0.830078125
0.810546875
0.810546875
0.8056640625
0.80078125
0.791015625
0.7861328125
0.7666015625
0.751953125
0.732421875
0.7421875
0.7373046875
0.72265625
0.7080078125
0.6884765625
0.68359375
0.6640625
0.6591796875
0.6494140625
0.6298828125
0.595703125
0.5859375
0.537109375
0.4931640625
0.458984375
0.4248046875
0.3955078125
0.37109375
0.3466796875
0.33203125
0.3173828125
0.2978515625
0.283203125
0.283203125
0.29296875
0.322265625
0.361328125
0.4150390625
0.46875
0.5126953125
0.56640625
0.6103515625
0.6494140625
0.693359375
0.7275390625
0.76171875
0.78125
0.80078125
0.810546875
0.8251953125
0.849609375
0.859375
0.8740234375
0.8935546875
0.888671875
0.908203125
0.9228515625
0.927734375
0.9326171875
0.9228515625
0.908203125
0.9033203125
0.888671875
0.869140625
0.8740234375
0.8642578125
0.859375
0.8203125
0.7958984375
0.8056640625
0.78125
0.78125
0.78125
0.771484375
0.7568359375
0.7421875
0.7373046875
0.732421875
0.7373046875
0.72265625
0.703125
0.6884765625
0.68359375
0.6689453125
0.64453125
0.6298828125
0.60546875
0.5810546875
0.556640625
0.5517578125
0.537109375
0.52734375
0.5029296875
0.4833984375
0.478515625
0.4638671875
0.4736328125
0.4931640625
0.5224609375
0.5712890625
0.6298828125
0.693359375
0.751953125
0.791015625
0.8447265625
0.888671875
0.9326171875
0.95703125
0.9765625
1.0009765625
1.0205078125
1.025390625
1.0302734375
1.025390625
1.0400390625
1.0302734375
1.015625
1.0107421875
1.015625
0.99609375
0.9716796875
0.947265625
0.927734375
0.9228515625
0.9228515625
0.8935546875
0.87890625
0.8642578125
0.849609375
0.83984375
0.8154296875
0.8203125
0.8154296875
0.8056640625
0.80078125
0.7861328125
0.76171875
0.751953125
0.7470703125
0.7470703125
0.7421875
0.72265625
0.7177734375
0.693359375
0.6591796875
0.64453125
0.60546875
0.56640625
0.52734375
0.48828125
0.4931640625
0.48828125
0.4833984375
0.4833984375
0.4638671875
0.4541015625
0.44921875
0.4248046875
0.4248046875
0.4150390625
0.41015625
0.4150390625
0.4248046875
0.458984375
0.5078125
0.5712890625
0.625
0.654296875
0.68359375
0.712890625
0.7373046875
0.76171875
0.7861328125
0.80078125
0.8154296875
0.8251953125
0.830078125
0.8447265625
0.8544921875
0.8740234375
0.8935546875
0.8984375
0.9228515625
0.9326171875
0.9423828125
0.927734375
0.91796875
0.908203125
0.888671875
0.8740234375
0.8740234375
0.8740234375
0.859375
0.859375
0.859375
0.849609375
0.830078125
0.8251953125
0.810546875
0.80078125
0.771484375
0.76171875
0.7470703125
0.7421875
0.732421875
0.712890625
0.68359375
0.6689453125
0.654296875
0.64453125
0.6298828125
0.6103515625
0.595703125
0.5712890625
0.546875
0.52734375
0.5126953125
0.5029296875
0.478515625
0.458984375
0.4541015625
0.4443359375
0.419921875
0.400390625
0.3955078125
0.4052734375
0.41015625
0.4345703125
0.458984375
0.4931640625
0.5419921875
0.6103515625
0.6787109375
0.732421875
0.7861328125
0.8251953125
0.8740234375
0.9033203125
0.91796875
0.91796875
0.9423828125
0.9814453125
0.9814453125
0.99609375
0.9912109375
0.9765625
0.966796875
0.9375
0.908203125
0.8837890625
0.859375
0.859375
0.869140625
0.8642578125
0.8642578125
0.849609375
0.8203125
0.8203125
0.8154296875
0.7861328125
0.791015625
0.7958984375
0.791015625
0.78125
0.76171875
0.7421875
0.7275390625
0.6884765625
0.6787109375
0.6494140625
0.64453125
0.64453125
0.64453125
0.6298828125
0.6298828125
0.6103515625
0.5859375
0.5810546875
0.556640625
0.546875
0.5419921875
0.52734375
0.5126953125
0.5029296875
0.478515625
0.4736328125
0.4638671875
0.4638671875
0.458984375
0.4443359375
0.4345703125
0.4443359375
0.4736328125
0.498046875
0.5419921875
0.6005859375
0.6591796875
0.7177734375
0.771484375
0.8154296875
0.8447265625
0.8837890625
0.91796875
0.91796875
0.9130859375
0.908203125
0.908203125
0.8984375
0.8984375
0.888671875
0.87890625
0.869140625
0.8544921875
0.8349609375
0.8349609375
0.8251953125
0.810546875
0.810546875
0.7958984375
0.7958984375
0.7763671875
0.771484375
0.771484375
0.7568359375
0.7470703125
0.751953125
0.7421875
0.732421875
0.72265625
0.712890625
0.7080078125
0.7080078125
0.7080078125
0.7177734375
0.6982421875
0.6884765625
0.6689453125
0.64453125
0.634765625
0.6201171875
0.6103515625
0.595703125
0.5712890625
0.5517578125
0.537109375
0.5126953125
0.5029296875
0.4541015625
0.419921875
0.390625
0.3662109375
0.380859375
0.380859375
0.3955078125
0.4345703125
0.48828125
0.5517578125
0.615234375
0.6689453125
0.7275390625
0.80078125
0.8544921875
0.8935546875
0.927734375
0.95703125
0.986328125
1.005859375
1.0205078125
1.0205078125
1.0009765625
1.0009765625
0.99609375
0.9765625
0.9765625
0.9619140625
0.9619140625
0.9423828125
0.91796875
0.8935546875
0.8837890625
0.849609375
0.83984375
0.8203125
0.8203125
0.80078125
0.7861328125
0.7861328125
0.7763671875
0.76171875
0.76171875
0.751953125
0.732421875
0.7373046875
0.732421875
0.7177734375
0.6982421875
0.6787109375
0.6640625
0.6494140625
0.625
0.615234375
0.5908203125
0.5712890625
0.5615234375
0.556640625
0.52734375
0.5224609375
0.517578125
0.5126953125
0.5029296875
0.48828125
0.5078125
0.5322265625
0.546875
0.6103515625
0.6640625
0.72265625
0.791015625
0.8203125
0.8447265625
0.8935546875
0.927734375
0.95703125
0.966796875
0.9765625
0.9814453125
0.9814453125
0.9814453125
0.9814453125
0.9912109375
0.9814453125
0.9521484375
0.9228515625
0.8935546875
0.869140625
0.8447265625
0.8251953125
0.8056640625
0.78125
0.771484375
0.7666015625
0.7470703125
0.7568359375
0.7470703125
0.7568359375
0.751953125
0.7470703125
0.7568359375
0.7275390625
0.6982421875
0.673828125
0.654296875
0.64453125
0.6298828125
0.6201171875
0.6103515625
0.60546875
0.60546875
0.60546875
0.6103515625
0.60546875
0.595703125
0.60546875
0.5908203125
0.5908203125
0.5712890625
0.5615234375
0.5712890625
0.576171875
0.5859375
0.6005859375
0.6201171875
0.6494140625
0.693359375
0.7470703125
0.80078125
0.8642578125
0.8984375
0.9326171875
0.9814453125
1.005859375
1.044921875
1.0595703125
1.0791015625
1.083984375
1.0888671875
1.0888671875
1.0888671875
1.07421875
1.0595703125
1.0595703125
1.0546875
1.0546875
1.0302734375
1.0107421875
0.9912109375
0.986328125
0.9716796875
0.95703125
0.9521484375
0.9375
0.927734375
0.91796875
0.9033203125
0.8984375
0.9033203125
0.8935546875
0.87890625
0.8642578125
0.8544921875
0.8544921875
0.8447265625
0.830078125
0.8154296875
0.80078125
0.78125
0.751953125
0.7275390625
0.6884765625
0.6494140625
0.615234375
0.5810546875
0.546875
0.5126953125
0.48828125
0.4638671875
0.439453125
0.4248046875
0.4150390625
0.44921875
0.46875
0.517578125
0.5615234375
0.615234375
0.6640625
0.7275390625
0.7763671875
0.830078125
0.8740234375
0.91796875
0.9619140625
0.986328125
1.0205078125
1.0498046875
1.0595703125
1.0693359375
1.0791015625
1.0693359375
1.09375
1.0693359375
1.044921875
1.025390625
1.005859375
1.015625
1.0009765625
0.9814453125
0.9619140625
0.9521484375
0.947265625
0.966796875
0.947265625
0.947265625
0.9521484375
0.9521484375
0.9423828125
0.9326171875
0.9228515625
0.9228515625
0.9033203125
0.888671875
0.859375
0.8203125
0.80078125
0.7666015625
0.7470703125
0.7177734375
0.68359375
0.654296875
0.6298828125
0.6005859375
0.5810546875
0.556640625
0.537109375
0.5224609375
0.498046875
0.48828125
0.48828125
0.4833984375
0.4638671875
0.4638671875
0.458984375
0.4638671875
0.4541015625
0.458984375
0.4638671875
0.4638671875
0.46875
0.46875
0.4931640625
0.52734375
0.5615234375
0.615234375
0.6787109375
0.7275390625
0.80078125
0.8544921875
0.9033203125
0.95703125
1.005859375
1.0302734375
1.0693359375
1.0986328125
1.103515625
1.1181640625
1.1376953125
1.142578125
1.1474609375
1.15234375
1.15234375
1.142578125
1.123046875
1.1083984375
1.0986328125
1.083984375
1.064453125
1.0302734375
1.0009765625
0.9912109375
0.9814453125
0.966796875
0.9375
0.9228515625
0.9033203125
0.888671875
0.8837890625
0.869140625
0.859375
0.8447265625
0.8251953125
0.810546875
0.7958984375
0.791015625
0.791015625
0.771484375
0.771484375
0.7568359375
0.7470703125
0.72265625
0.7080078125
0.703125
0.654296875
0.615234375
0.576171875
0.5419921875
0.5126953125
0.5126953125
0.498046875
0.4833984375
0.4736328125
0.4736328125
0.4833984375
0.478515625
0.4736328125
0.46875
0.4736328125
0.4638671875
0.46875
0.4541015625
0.44921875
0.46875
0.4931640625
0.48828125
0.5517578125
0.6005859375
0.6591796875
0.72265625
0.78125
0.83984375
0.8984375
0.9326171875
0.9619140625
0.9765625
1.005859375
1.025390625
1.03515625
1.0498046875
1.0595703125
1.0498046875
1.0595703125
1.0693359375
1.064453125
1.0693359375
1.0595703125
1.0595703125
1.0546875
1.025390625
1.0107421875
0.986328125
0.966796875
0.9619140625
0.9521484375
0.9326171875
0.9326171875
0.927734375
0.9130859375
0.8935546875
0.888671875
0.8740234375
0.8642578125
0.8447265625
0.8251953125
0.8154296875
0.80078125
0.7763671875
0.771484375
0.7470703125
0.7373046875
0.732421875
0.712890625
0.703125
0.68359375
0.654296875
0.6298828125
0.60546875
0.5859375
0.5908203125
0.5615234375
0.56640625
0.546875
0.5224609375
0.5078125
0.498046875
0.4833984375
0.478515625
0.4541015625
0.4345703125
0.4296875
0.4150390625
0.400390625
0.419921875
0.4638671875
0.517578125
0.5712890625
0.6298828125
0.68359375
0.7373046875
0.791015625
0.83984375
0.859375
0.888671875
0.9228515625
0.9228515625
0.908203125
0.9033203125
0.888671875
0.8837890625
0.908203125
0.908203125
0.908203125
0.9033203125
0.908203125
0.9130859375
0.8935546875
0.8740234375
0.8642578125
0.859375
0.83984375
0.8349609375
0.830078125
0.8154296875
0.8203125
0.80078125
0.7666015625
0.7470703125
0.7373046875
0.732421875
0.732421875
0.7177734375
0.7080078125
0.693359375
0.6787109375
0.6640625
0.6591796875
0.6396484375
0.625
0.6005859375
0.5810546875
0.56640625
0.5419921875
0.52734375
0.517578125
0.4931640625
0.478515625
0.4541015625
0.439453125
0.4443359375
0.4296875
0.4150390625
0.41015625
0.390625
0.380859375
0.3857421875
0.3955078125
0.4248046875
0.46875
0.5322265625
0.5859375
0.634765625
0.6982421875
0.7470703125
0.7861328125
0.8203125
0.859375
0.8837890625
0.9130859375
0.9228515625
0.9423828125
0.95703125
0.9619140625
0.947265625
0.95703125
0.9423828125
0.9326171875
0.9228515625
0.91796875
0.908203125
0.888671875
0.8642578125
0.869140625
0.8642578125
0.8447265625
0.8447265625
0.8251953125
0.8154296875
0.7958984375
0.7861328125
0.78125
0.78125
0.7666015625
0.76171875
0.7421875
0.7275390625
0.72265625
0.68359375
0.64453125
0.615234375
0.5810546875
0.556640625
0.52734375
0.5078125
0.478515625
0.4638671875
0.4443359375
0.4248046875
0.41015625
0.419921875
0.4248046875
0.439453125
0.4345703125
0.4345703125
0.4345703125
0.419921875
0.4248046875
0.4296875
0.439453125
0.458984375
0.4638671875
0.4931640625
0.537109375
0.5810546875
0.6494140625
0.7080078125
0.7373046875
0.7861328125
0.830078125
0.869140625
0.9130859375
0.9375
0.9716796875
1.0009765625
0.99609375
0.986328125
0.99609375
1.005859375
1.0107421875
1.0205078125
1.015625
1.015625
1.0009765625
0.9765625
0.9619140625
0.9326171875
0.9326171875
0.908203125
0.8837890625
0.8642578125
0.849609375
0.849609375
0.8349609375
0.8203125
0.8056640625
0.7958984375
0.78125
0.76171875
0.7470703125
0.732421875
0.732421875
0.712890625
0.6787109375
0.6396484375
0.60546875
0.5712890625
0.5419921875
0.5126953125
0.4833984375
0.458984375
0.439453125
0.419921875
0.400390625
0.400390625
0.4052734375
0.3857421875
0.3955078125
0.3857421875
0.3955078125
0.3955078125
0.4052734375
0.3857421875
0.380859375
0.37109375
0.361328125
0.361328125
0.3857421875
0.4248046875
0.4736328125
0.5322265625
0.576171875
0.625
0.673828125
0.7275390625
0.7666015625
0.8154296875
0.859375
0.8984375
0.9130859375
0.9423828125
0.9619140625
0.9765625
0.986328125
0.986328125
0.9716796875
0.9814453125
0.947265625
0.9228515625
0.8935546875
0.869140625
0.8544921875
0.849609375
0.8349609375
0.8203125
0.8154296875
0.80078125
0.8203125
0.8203125
0.8203125
0.8203125
0.830078125
0.8251953125
0.830078125
0.8203125
0.8154296875
0.80078125
0.7763671875
0.7373046875
0.72265625
0.703125
0.6982421875
0.6884765625
0.6689453125
0.6396484375
0.6103515625
0.595703125
0.576171875
0.576171875
0.546875
0.5224609375
0.5029296875
0.4833984375
0.4736328125
0.4736328125
0.4736328125
0.46875
0.4638671875
0.4443359375
0.4345703125
0.4150390625
0.419921875
0.439453125
0.478515625
0.52734375
0.5810546875
0.64453125
0.712890625
0.771484375
0.8203125
0.869140625
0.908203125
0.9423828125
0.9521484375
0.9521484375
0.9765625
0.9814453125
0.9716796875
0.9814453125
0.9716796875
0.966796875
0.9521484375
0.9423828125
0.91796875
0.87890625
0.83984375
0.810546875
0.7763671875
0.7470703125
0.7177734375
0.693359375
0.673828125
0.6494140625
0.634765625
0.6201171875
0.6005859375
0.5859375
0.5712890625
0.556640625
0.546875
0.5322265625
0.5224609375
0.5126953125
0.498046875
0.48828125
0.4736328125
0.46875
0.458984375
0.4443359375
0.4345703125
0.4248046875
0.41015625
0.400390625
0.3955078125
0.380859375
0.37109375
0.3662109375
0.37109375
0.3564453125
0.3369140625
0.3271484375
0.3173828125
0.3173828125
0.3466796875
0.3564453125
0.37109375
0.41015625
0.46875
0.5322265625
0.615234375
0.6884765625
0.751953125
0.8056640625
0.8544921875
0.888671875
0.9228515625
0.95703125
0.9912109375
0.99609375
0.986328125
1.0009765625
1.0009765625
1.005859375
1.015625
1.015625
1.025390625
0.99609375
0.9814453125
0.9814453125
0.9765625
0.9619140625
0.947265625
0.9228515625
0.908203125
0.8984375
0.888671875
0.8837890625
0.8349609375
0.8154296875
0.8203125
0.7958984375
0.791015625
0.7958984375
0.78125
0.78125
0.771484375
0.7666015625
0.76171875
0.7421875
0.72265625
0.7177734375
0.7080078125
0.693359375
0.6640625
0.64453125
0.6298828125
0.6103515625
0.6005859375
0.5810546875
0.5517578125
0.537109375
0.5224609375
0.517578125
0.4833984375
0.46875
0.44921875
0.4345703125
0.439453125
0.44921875
0.458984375
0.48828125
0.5322265625
0.5810546875
0.6298828125
0.6884765625
0.7373046875
0.7958984375
0.859375
0.8984375
0.9326171875
0.95703125
0.966796875
0.9912109375
1.0009765625
1.015625
1.0302734375
1.0205078125
1.025390625
1.025390625
1.025390625
1.0205078125
1.0009765625
0.9814453125
0.9765625
0.9619140625
0.927734375
0.9130859375
0.8984375
0.8740234375
0.8349609375
0.810546875
0.7861328125
0.7666015625
0.771484375
0.7763671875
0.7763671875
0.7763671875
0.7861328125
0.7958984375
0.7861328125
0.7763671875
0.7568359375
0.7421875
0.7421875
0.732421875
0.7275390625
0.7177734375
0.693359375
0.6494140625
0.6298828125
0.615234375
0.595703125
0.595703125
0.5859375
0.556640625
0.5419921875
0.517578125
0.5126953125
0.4931640625
0.4736328125
0.478515625
0.46875
0.4638671875
0.458984375
0.4736328125
0.5078125
0.5419921875
0.595703125
0.6494140625
0.693359375
0.732421875
0.791015625
0.830078125
0.8642578125
0.8984375
0.927734375
0.9521484375
0.966796875
0.9765625
0.99609375
1.0107421875
1.025390625
1.025390625
1.025390625
1.0205078125
1.015625
1.005859375
1.0009765625
0.9814453125
0.9716796875
0.966796875
0.9423828125
0.9326171875
0.91796875
0.908203125
0.8984375
0.87890625
0.8642578125
0.8544921875
0.849609375
0.849609375
0.8447265625
0.8251953125
0.8056640625
0.78125
0.7861328125
0.7666015625
0.751953125
0.751953125
0.7421875
0.732421875
0.72265625
0.712890625
0.6982421875
0.6787109375
0.6640625
0.64453125
0.6298828125
0.6201171875
0.60546875
0.5810546875
0.5615234375
0.5517578125
0.52734375
0.5126953125
0.48828125
0.4833984375
0.4833984375
0.44921875
0.4150390625
0.3955078125
0.3955078125
0.4150390625
0.4833984375
0.5322265625
0.595703125
0.6689453125
0.732421875
0.791015625
0.83984375
0.8837890625
0.9228515625
0.9423828125
0.966796875
0.9814453125
0.9814453125
0.9912109375
0.9814453125
0.966796875
0.95703125
0.9619140625
0.9423828125
0.9423828125
0.927734375
0.9228515625
0.91796875
0.908203125
0.888671875
0.87890625
0.8740234375
0.8740234375
0.849609375
0.8251953125
0.810546875
0.810546875
0.810546875
0.8251953125
0.8251953125
0.8203125
0.8203125
0.810546875
0.791015625
0.78125
0.76171875
0.751953125
0.751953125
0.732421875
0.712890625
0.693359375
0.6689453125
0.654296875
0.64453125
0.6298828125
0.6005859375
0.5712890625
0.5517578125
0.52734375
0.5126953125
0.48828125
0.4833984375
0.46875
0.458984375
0.4443359375
0.419921875
0.41015625
0.419921875
0.4345703125
0.4833984375
0.5078125
0.5517578125
0.60546875
0.6494140625
0.693359375
0.7373046875
0.7666015625
0.80078125
0.8349609375
0.859375
0.888671875
0.8984375
0.908203125
0.91796875
0.908203125
0.8935546875
0.888671875
0.8740234375
0.8740234375
0.859375
0.849609375
0.8447265625
0.8251953125
0.8056640625
0.7958984375
0.7861328125
0.78125
0.76171875
0.751953125
0.751953125
0.7080078125
0.6787109375
0.64453125
0.6201171875
0.6201171875
0.6396484375
0.634765625
0.6396484375
0.6396484375
0.634765625
0.6298828125
0.6103515625
0.595703125
0.5908203125
0.5810546875
0.56640625
0.556640625
0.5322265625
0.52734375
0.517578125
0.5126953125
0.5078125
0.4638671875
0.44921875
0.4296875
0.4248046875
0.4052734375
0.400390625
0.41015625
0.439453125
0.48828125
0.546875
0.6103515625
0.6591796875
0.72265625
0.7763671875
0.830078125
0.8642578125
0.888671875
0.91796875
0.927734375
0.947265625
0.9521484375
0.9619140625
0.966796875
0.966796875
0.9765625
0.95703125
0.9521484375
0.9423828125
0.927734375
0.91796875
0.9033203125
0.8837890625
0.869140625
0.869140625
0.849609375
0.8349609375
0.8349609375
0.8251953125
0.8203125
0.80078125
0.80078125
0.80078125
0.78125
0.7666015625
0.7666015625
0.732421875
0.703125
0.6787109375
0.654296875
0.6298828125
0.6103515625
0.5859375
0.5615234375
0.537109375
0.5224609375
0.498046875
0.478515625
0.458984375
0.4443359375
0.4296875
0.4150390625
0.3955078125
0.390625
0.3759765625
0.380859375
0.4052734375
0.4345703125
0.4736328125
0.5322265625
0.595703125
0.6640625
0.7373046875
0.80078125
0.859375
0.9228515625
0.9423828125
0.9814453125
1.015625
1.005859375
0.99609375
0.986328125
0.9814453125
0.986328125
0.9912109375
0.9912109375
0.9912109375
0.9912109375
0.986328125
0.9814453125
0.99609375
0.9814453125
0.966796875
0.947265625
0.9423828125
0.9375
0.9326171875
0.91796875
0.9130859375
0.908203125
0.8935546875
0.8544921875
0.8447265625
0.8251953125
0.8154296875
0.8056640625
0.8056640625
0.8154296875
0.7958984375
0.7763671875
0.771484375
0.751953125
0.7421875
0.732421875
0.712890625
0.6982421875
0.673828125
0.64453125
0.625
0.6005859375
0.576171875
0.5615234375
0.546875
0.5419921875
0.537109375
0.5078125
0.5029296875
0.5078125
0.52734375
0.5517578125
0.5908203125
0.6298828125
0.693359375
0.7470703125
0.7958984375
0.83984375
0.87890625
0.91796875
0.9521484375
0.9765625
1.0009765625
1.025390625
1.025390625
1.025390625
1.0302734375
1.03515625
1.03515625
1.0302734375
1.03515625
1.025390625
1.005859375
0.9912109375
0.9619140625
0.9521484375
0.91796875
0.888671875
0.8544921875
0.830078125
0.8203125
0.8056640625
0.7861328125
0.7666015625
0.7421875
0.7373046875
0.72265625
0.712890625
0.712890625
0.6982421875
0.68359375
0.673828125
0.6640625
0.6689453125
0.6396484375
0.6201171875
0.60546875
0.5908203125
0.556640625
0.5322265625
0.517578125
0.4931640625
0.44921875
0.41015625
0.3857421875
0.37109375
0.390625
0.3857421875
0.3759765625
0.3759765625
0.380859375
0.3759765625
0.380859375
0.380859375
0.400390625
0.4443359375
0.48828125
0.546875
0.615234375
0.673828125
0.7275390625
0.7763671875
0.8203125
0.8349609375
0.859375
0.9033203125
0.9326171875
0.95703125
0.986328125
1.0009765625
1.005859375
1.005859375
1.0205078125
1.0107421875
1.0107421875
1.005859375
0.99609375
1.005859375
1.0009765625
0.9619140625
0.9228515625
0.888671875
0.8544921875
0.830078125
0.80078125
0.7763671875
0.751953125
0.7373046875
0.7177734375
0.703125
0.6982421875
0.6884765625
0.68359375
0.6884765625
0.693359375
0.6982421875
0.6982421875
0.68359375
0.6640625
0.654296875
0.654296875
0.6298828125
0.6103515625
0.5810546875
0.5615234375
0.546875
0.5322265625
0.498046875
0.498046875
0.4638671875
0.44921875
0.439453125
0.4296875
0.4150390625
0.41015625
0.390625
0.37109375
0.3564453125
0.3759765625
0.4052734375
0.458984375
0.498046875
0.5517578125
0.615234375
0.6787109375
0.732421875
0.771484375
0.8251953125
0.859375
0.8935546875
0.9130859375
0.9326171875
0.9375
0.9375
0.927734375
0.9326171875
0.9326171875
0.9375
0.9228515625
0.9228515625
0.8935546875
0.8837890625
0.869140625
0.830078125
0.7958984375
0.7568359375
0.7275390625
0.732421875
0.732421875
0.72265625
0.7080078125
0.693359375
0.6884765625
0.6884765625
0.68359375
0.673828125
0.6689453125
0.6689453125
0.6640625
0.654296875
0.654296875
0.64453125
0.6494140625
0.6396484375
0.615234375
0.576171875
0.556640625
0.5419921875
0.5419921875
0.5322265625
0.52734375
0.517578125
0.48828125
0.4833984375
0.4736328125
0.4638671875
0.458984375
0.4541015625
0.4541015625
0.44921875
0.439453125
0.4345703125
0.458984375
0.498046875
0.537109375
0.5859375
0.654296875
0.712890625
0.771484375
0.8154296875
0.8544921875
0.87890625
0.9033203125
0.908203125
0.9130859375
0.9326171875
0.947265625
0.9521484375
0.9423828125
0.9326171875
0.9228515625
0.908203125
0.9033203125
0.8740234375
0.859375
0.83984375
0.8203125
0.8056640625
0.7958984375
0.7666015625
0.7470703125
0.7421875
0.7373046875
0.7373046875
0.7275390625
0.7177734375
0.712890625
0.6982421875
0.693359375
0.68359375
0.6689453125
0.6640625
0.6591796875
0.64453125
0.6298828125
0.6103515625
0.595703125
0.5810546875
0.5615234375
0.546875
0.537109375
0.5224609375
0.5029296875
0.4833984375
0.478515625
0.478515625
0.478515625
0.4638671875
0.4296875
0.41015625
0.400390625
0.41015625
0.439453125
0.478515625
0.5224609375
0.5712890625
0.6201171875
0.6640625
0.6982421875
0.7373046875
0.76171875
0.80078125
0.8203125
0.83984375
0.869140625
0.8935546875
0.9130859375
0.91796875
0.908203125
0.9130859375
0.8984375
0.87890625
0.8837890625
0.869140625
0.859375
0.849609375
0.830078125
0.7958984375
0.7861328125
0.771484375
0.7568359375
0.7568359375
0.751953125
0.7666015625
0.76171875
0.771484375
0.7666015625
0.751953125
0.751953125
0.7421875
0.7470703125
0.7177734375
0.6884765625
0.654296875
0.634765625
0.6005859375
0.5712890625
0.546875
0.5224609375
0.4931640625
0.46875
0.458984375
0.4443359375
0.4296875
0.4248046875
0.44921875
0.498046875
0.5517578125
0.6201171875
0.673828125
0.751953125
0.8154296875
0.869140625
0.9130859375
0.9521484375
0.9912109375
1.015625
1.0400390625
1.0546875
1.064453125
1.0693359375
1.0791015625
1.0693359375
1.0791015625
1.07421875
1.0693359375
1.0693359375
1.044921875
1.025390625
1.0009765625
0.9765625
0.9619140625
0.9423828125
0.9375
0.9130859375
0.9033203125
0.8935546875
0.8837890625
0.859375
0.859375
0.859375
0.8642578125
0.859375
0.8544921875
0.8447265625
0.8251953125
0.8203125
0.8056640625
0.7861328125
0.76171875
0.751953125
0.7373046875
0.7080078125
0.6689453125
0.625
0.5859375
0.5517578125
0.537109375
0.52734375
0.537109375
0.537109375
0.5712890625
0.5908203125
0.6396484375
0.6884765625
0.7373046875
0.791015625
0.849609375
0.8935546875
0.9423828125
0.9765625
1.0009765625
1.0205078125
1.03515625
1.0546875
1.07421875
1.0693359375
1.0693359375
1.064453125
1.0791015625
1.0595703125
1.0595703125
1.0498046875
1.0498046875
1.0546875
1.025390625
1.0107421875
1.005859375
1.0107421875
1.0009765625
0.986328125
0.9765625
0.966796875
0.966796875
0.9619140625
0.9423828125
0.927734375
0.9130859375
0.8935546875
0.8837890625
0.8642578125
0.8544921875
0.849609375
0.849609375
0.8447265625
0.830078125
0.8154296875
0.8056640625
0.7958984375
0.76171875
0.7373046875
0.7177734375
0.7080078125
0.6787109375
0.6494140625
0.615234375
0.60546875
0.5859375
0.56640625
0.56640625
0.5712890625
0.595703125
0.6298828125
0.6884765625
0.72265625
0.78125
0.8203125
0.8447265625
0.869140625
0.8837890625
0.9033203125
0.91796875
0.9326171875
0.9423828125
0.9521484375
0.95703125
0.9619140625
0.966796875
0.9814453125
0.9912109375
1.005859375
1.0107421875
1.015625
1.0205078125
1.0205078125
1.0009765625
0.9814453125
0.9814453125
0.966796875
0.9521484375
0.9326171875
0.9375
0.9423828125
0.8984375
0.869140625
0.83984375
0.8154296875
0.8056640625
0.8203125
0.8349609375
0.8203125
0.8154296875
0.8056640625
0.8056640625
0.810546875
0.7958984375
0.7861328125
0.771484375
0.7470703125
0.7421875
0.7177734375
0.6884765625
0.6884765625
0.6494140625
0.64453125
0.6298828125
0.6201171875
0.5908203125
0.556640625
0.5322265625
0.5224609375
0.52734375
0.537109375
0.56640625
0.6005859375
0.6640625
0.7080078125
0.7470703125
0.7861328125
0.830078125
0.87890625
0.9130859375
0.9326171875
0.9619140625
0.9765625
1.0107421875
1.0205078125
1.025390625
1.025390625
1.025390625
1.0302734375
1.044921875
1.044921875
1.0498046875
1.0400390625
1.0205078125
1.0205078125
1.0107421875
1.0107421875
1.005859375
0.9814453125
0.9716796875
0.95703125
0.91796875
0.8837890625
0.849609375
0.8203125
0.7958984375
0.7763671875
0.7568359375
0.732421875
0.7177734375
0.703125
0.6884765625
0.6689453125
0.6591796875
0.6396484375
0.6298828125
0.6103515625
0.6005859375
0.5810546875
0.5712890625
0.5615234375
0.546875
0.537109375
0.52734375
0.517578125
0.5126953125
0.498046875
0.48828125
0.517578125
0.52734375
0.5224609375
0.5078125
0.4931640625
0.478515625
0.478515625
0.478515625
0.4833984375
0.5029296875
0.5224609375
0.5615234375
0.6103515625
0.6640625
0.693359375
0.72265625
0.751953125
0.7958984375
0.8544921875
0.9130859375
0.947265625
0.9765625
1.0107421875
1.03515625
1.044921875
1.0546875
1.0693359375
1.0791015625
1.09375
1.0888671875
1.0791015625
1.0791015625
1.07421875
1.07421875
1.0546875
1.044921875
1.025390625
1.0107421875
1.005859375
1.0009765625
0.966796875
0.9423828125
0.9228515625
0.908203125
0.8837890625
0.888671875
0.8740234375
0.8837890625
0.859375
0.849609375
0.849609375
0.8349609375
0.83984375
0.830078125
0.8203125
0.810546875
0.8056640625
0.80078125
0.78125
0.7568359375
0.732421875
0.72265625
0.7080078125
0.6982421875
0.673828125
0.64453125
0.634765625
0.615234375
0.6005859375
0.5859375
0.56640625
0.546875
0.537109375
0.5322265625
0.517578125
0.4931640625
0.4833984375
0.478515625
0.517578125
0.5517578125
0.5810546875
0.634765625
0.6884765625
0.751953125
0.8056640625
0.8447265625
0.8837890625
0.9228515625
0.947265625
0.95703125
0.9716796875
0.99609375
1.015625
1.0107421875
1.015625
1.0009765625
1.0009765625
0.9912109375
0.9912109375
0.9814453125
0.9716796875
0.95703125
0.947265625
0.9326171875
0.908203125
0.8935546875
0.8740234375
0.8642578125
0.8544921875
0.8544921875
0.8349609375
0.83984375
0.830078125
0.810546875
0.7763671875
0.7470703125
0.7177734375
0.6884765625
0.703125
0.7080078125
0.7080078125
0.703125
0.6982421875
0.6884765625
0.6787109375
0.6689453125
0.6494140625
0.654296875
0.6494140625
0.6494140625
0.634765625
0.6201171875
0.6103515625
0.6103515625
0.6005859375
0.576171875
0.556640625
0.5322265625
0.52734375
0.5126953125
0.5029296875
0.48828125
0.44921875
0.4443359375
0.44921875
0.458984375
0.5078125
0.5517578125
0.595703125
0.6396484375
0.68359375
0.7470703125
0.7666015625
0.8056640625
0.830078125
0.869140625
0.8935546875
0.9033203125
0.9130859375
0.91796875
0.9326171875
0.9521484375
0.966796875
0.9619140625
0.966796875
0.947265625
0.9326171875
0.908203125
0.9130859375
0.908203125
0.908203125
0.888671875
0.8740234375
0.8642578125
0.8447265625
0.830078125
0.8056640625
0.7958984375
0.7958984375
0.7958984375
0.7763671875
0.7666015625
0.7421875
0.732421875
0.7275390625
0.732421875
0.72265625
0.72265625
0.6982421875
0.6884765625
0.6884765625
0.68359375
0.6640625
0.6396484375
0.6298828125
0.615234375
0.60546875
0.5859375
0.576171875
0.556640625
0.5322265625
0.517578125
0.498046875
0.4736328125
0.458984375
0.4443359375
0.4296875
0.419921875
0.3955078125
0.3857421875
0.380859375
0.3662109375
0.37109375
0.4150390625
0.4296875
0.4541015625
0.4833984375
0.5224609375
0.5810546875
0.64453125
0.693359375
0.7421875
0.791015625
0.8349609375
0.8740234375
0.888671875
0.8935546875
0.908203125
0.9228515625
0.9326171875
0.9423828125
0.9375
0.95703125
0.966796875
0.95703125
0.9619140625
0.95703125
0.947265625
0.927734375
0.908203125
0.8935546875
0.869140625
0.8349609375
0.810546875
0.80078125
0.7861328125
0.7861328125
0.791015625
0.771484375
0.76171875
0.7470703125
0.7373046875
0.732421875
0.7275390625
0.7080078125
0.712890625
0.703125
0.6884765625
0.6787109375
0.6640625
0.654296875
0.6396484375
0.634765625
0.625
0.615234375
0.60546875
0.5810546875
0.5615234375
0.537109375
0.5126953125
0.4833984375
0.478515625
0.4638671875
0.439453125
0.4248046875
0.400390625
0.3857421875
0.3857421875
0.380859375
0.361328125
0.361328125
0.380859375
0.4052734375
0.439453125
0.498046875
0.5419921875
0.595703125
0.6396484375
0.68359375
0.72265625
0.7568359375
0.8056640625
0.8203125
0.8447265625
0.8642578125
0.8837890625
0.908203125
0.9033203125
0.8935546875
0.8935546875
0.8935546875
0.87890625
0.8740234375
0.8837890625
0.8837890625
0.8642578125
0.859375
0.849609375
0.8447265625
0.8251953125
0.8056640625
0.80078125
0.7666015625
0.771484375
0.771484375
0.7373046875
0.6982421875
0.6640625
0.6396484375
0.6201171875
0.6103515625
0.595703125
0.576171875
0.56640625
0.56640625
0.5810546875
0.5615234375
0.556640625
0.556640625
0.546875
0.5322265625
0.5322265625
0.52734375
0.517578125
0.5029296875
0.4931640625
0.478515625
0.46875
0.4541015625
0.4443359375
0.4345703125
0.4296875
0.4150390625
0.3857421875
0.380859375
0.3662109375
0.3515625
0.3515625
0.3564453125
0.3759765625
0.390625
0.41015625
0.4443359375
0.5078125
0.5712890625
0.634765625
0.693359375
0.7421875
0.7763671875
0.8056640625
0.8447265625
0.87890625
0.9033203125
0.9130859375
0.9326171875
0.9375
0.9375
0.95703125
0.9423828125
0.9326171875
0.9375
0.9423828125
0.9326171875
0.91796875
0.908203125
0.8837890625
0.8544921875
0.8203125
0.78125
0.7470703125
0.7177734375
0.693359375
0.6689453125
0.654296875
0.6396484375
0.6201171875
0.60546875
0.5908203125
0.5810546875
0.56640625
0.5517578125
0.5419921875
0.52734375
0.5224609375
0.5078125
0.48828125
0.4736328125
0.4736328125
0.4736328125
0.4736328125
0.48828125
0.4833984375
0.46875
0.4638671875
0.4638671875
0.44921875
0.4443359375
0.4345703125
0.439453125
0.44921875
0.439453125
0.4345703125
0.4248046875
0.400390625
0.4052734375
0.390625
0.380859375
0.361328125
0.361328125
0.390625
0.439453125
0.5224609375
0.5908203125
0.6494140625
0.712890625
0.76171875
0.830078125
0.8837890625
0.9130859375
0.9423828125
0.95703125
0.9765625
0.9814453125
0.986328125
0.9912109375
0.9814453125
0.9765625
