0.595703125
0.615234375
0.6298828125
0.6396484375
0.654296875
0.6591796875
0.654296875
0.6591796875
0.654296875
0.6494140625
0.6396484375
0.6298828125
0.6201171875
0.6103515625
0.6005859375
0.5908203125
0.5810546875
0.5712890625
0.5615234375
0.556640625
0.5419921875
0.5419921875
0.52734375
0.5224609375
0.5126953125
0.5029296875
0.4931640625
0.4833984375
0.4736328125
0.46875
0.4638671875
0.4541015625
0.4443359375
0.4345703125
0.4296875
0.419921875
0.4150390625
0.4052734375
0.3955078125
0.390625
0.3857421875
0.3759765625
0.3759765625
0.3662109375
0.361328125
0.3564453125
0.3515625
0.3515625
0.3466796875
0.3466796875
0.341796875
0.3369140625
0.33203125
0.33203125
0.3271484375
0.322265625
0.3173828125
0.3173828125
0.3173828125
0.3125
0.3173828125
0.3173828125
0.3271484375
0.3515625
0.3759765625
0.4052734375
0.4443359375
0.4736328125
0.5029296875
0.52734375
0.5517578125
0.5712890625
0.5859375
0.60546875
0.6103515625
0.6201171875
0.6298828125
0.6298828125
0.6298828125
0.625
0.6201171875
0.6103515625
0.60546875
0.595703125
0.5810546875
0.5712890625
0.556640625
0.546875
0.5322265625
0.5224609375
0.5126953125
0.5029296875
0.4931640625
0.4833984375
0.4736328125
0.46875
0.458984375
0.4541015625
0.4443359375
0.4345703125
0.4296875
0.4248046875
0.4150390625
0.41015625
0.400390625
0.3955078125
0.3857421875
0.380859375
0.380859375
0.37109375
0.37109375
0.3662109375
0.361328125
0.3564453125
0.3564453125
0.3515625
0.3466796875
0.3466796875
0.341796875
0.341796875
0.3369140625
0.33203125
0.33203125
0.3271484375
0.3271484375
0.3271484375
0.322265625
0.322265625
0.3173828125
0.3173828125
0.3173828125
0.3173828125
0.3173828125
0.3173828125
0.322265625
0.3271484375
0.3466796875
0.37109375
0.4052734375
0.4345703125
0.4736328125
0.5029296875
0.52734375
0.5517578125
0.5712890625
0.5859375
0.60546875
0.615234375
0.6201171875
0.625
0.6298828125
0.625
0.6201171875
0.615234375
0.60546875
0.595703125
0.5859375
0.5712890625
0.5615234375
0.556640625
0.5419921875
0.537109375
0.52734375
0.517578125
0.5078125
0.498046875
0.48828125
0.4833984375
0.4736328125
0.4638671875
0.458984375
0.44921875
0.4443359375
0.4345703125
0.4248046875
0.419921875
0.4150390625
0.4052734375
0.4052734375
0.3955078125
0.390625
0.3857421875
0.3759765625
0.37109375
0.3662109375
0.3662109375
0.361328125
0.3564453125
0.3564453125
0.3515625
0.3466796875
0.3466796875
0.341796875
0.341796875
0.3369140625
0.33203125
0.33203125
0.33203125
0.33203125
0.3271484375
0.3271484375
0.3271484375
0.322265625
0.322265625
0.322265625
0.3271484375
0.341796875
0.3662109375
0.3955078125
0.4248046875
0.4541015625
0.48828125
0.517578125
0.5419921875
0.56640625
0.5859375
0.6005859375
0.615234375
0.625
0.6298828125
0.6298828125
0.6298828125
0.6298828125
0.625
0.615234375
0.6103515625
0.6005859375
0.5859375
0.576171875
0.56640625
0.5517578125
0.5419921875
0.5322265625
0.517578125
0.5078125
0.498046875
0.48828125
0.478515625
0.46875
0.4638671875
0.44921875
0.4443359375
0.4345703125
0.4248046875
0.419921875
0.4150390625
0.4052734375
0.400390625
0.3955078125
0.390625
0.3857421875
0.3759765625
0.3759765625
0.37109375
0.3662109375
0.361328125
0.3564453125
0.3564453125
0.3515625
0.3466796875
0.341796875
0.341796875
0.3369140625
0.3369140625
0.33203125
0.33203125
0.33203125
0.3271484375
0.3271484375
0.3271484375
0.3173828125
0.322265625
0.3173828125
0.3173828125
0.3271484375
0.3369140625
0.3662109375
0.3955078125
0.4248046875
0.4638671875
0.4931640625
0.52734375
0.5517578125
0.576171875
0.595703125
0.6201171875
0.6298828125
0.64453125
0.654296875
0.6591796875
0.6689453125
0.6640625
0.6591796875
0.6591796875
0.6494140625
0.6396484375
0.6298828125
0.615234375
0.60546875
0.595703125
0.5859375
0.5712890625
0.5615234375
0.5517578125
0.5419921875
0.52734375
0.5224609375
0.5078125
0.5029296875
0.48828125
0.478515625
0.4736328125
0.4638671875
0.4541015625
0.4443359375
0.4345703125
0.4296875
0.419921875
0.41015625
0.4052734375
0.3955078125
0.390625
0.3857421875
0.3759765625
0.3759765625
0.3662109375
0.3662109375
0.361328125
0.3515625
0.3515625
0.3466796875
0.3466796875
0.341796875
0.3369140625
0.3369140625
0.3271484375
0.3271484375
0.322265625
0.3271484375
0.322265625
0.322265625
0.3173828125
0.3173828125
0.3173828125
0.3173828125
0.322265625
0.3369140625
0.361328125
0.3857421875
0.4248046875
0.458984375
0.4931640625
0.5224609375
0.5517578125
0.576171875
0.595703125
0.615234375
0.634765625
0.64453125
0.6591796875
0.6640625
0.6689453125
0.6689453125
0.6640625
0.6640625
0.6494140625
0.64453125
0.634765625
0.6201171875
0.60546875
0.595703125
0.5810546875
0.5712890625
0.556640625
0.546875
0.537109375
0.52734375
0.517578125
0.5078125
0.4931640625
0.48828125
0.4736328125
0.4638671875
0.458984375
0.44921875
0.439453125
0.4296875
0.419921875
0.41015625
0.4052734375
0.3955078125
0.390625
0.3857421875
0.380859375
0.3759765625
0.3662109375
0.3662109375
0.3564453125
0.3564453125
0.3466796875
0.3466796875
0.341796875
0.3369140625
0.3369140625
0.33203125
0.33203125
0.3271484375
0.3271484375
0.3271484375
0.322265625
0.322265625
0.322265625
0.322265625
0.3173828125
0.3173828125
0.3173828125
0.3173828125
0.3173828125
0.3173828125
0.3271484375
0.3515625
0.3759765625
0.4052734375
0.4443359375
0.478515625
0.5078125
0.5419921875
0.5615234375
0.5908203125
0.60546875
0.625
0.634765625
0.64453125
0.654296875
0.6591796875
0.6591796875
0.6591796875
0.654296875
0.64453125
0.634765625
0.6298828125
0.615234375
0.6005859375
0.5859375
0.576171875
0.5615234375
0.5517578125
0.5419921875
0.52734375
0.517578125
0.5078125
0.4931640625
0.4833984375
0.4736328125
0.4638671875
0.458984375
0.44921875
0.439453125
0.4345703125
0.4248046875
0.4150390625
0.41015625
0.400390625
0.3955078125
0.3857421875
0.380859375
0.3759765625
0.37109375
0.3662109375
0.361328125
0.3564453125
0.3515625
0.3466796875
0.341796875
0.3369140625
0.3369140625
0.33203125
0.33203125
0.3271484375
0.3271484375
0.322265625
0.322265625
0.322265625
0.3173828125
0.3125
0.3125
0.3125
0.3076171875
0.3076171875
0.3076171875
0.3076171875
0.3076171875
0.3125
0.322265625
0.3369140625
0.3662109375
0.3955078125
0.4345703125
0.46875
0.498046875
0.5322265625
0.556640625
0.5810546875
0.6005859375
0.615234375
0.634765625
0.64453125
0.6494140625
0.654296875
0.6591796875
0.654296875
0.654296875
0.64453125
0.634765625
0.6298828125
0.6103515625
0.60546875
0.5908203125
0.576171875
0.56640625
0.556640625
0.5419921875
0.537109375
0.5224609375
0.5126953125
0.498046875
0.48828125
0.478515625
0.46875
0.458984375
0.4541015625
0.4443359375
0.439453125
0.4296875
0.419921875
0.4150390625
0.4052734375
0.400390625
0.3955078125
0.390625
0.3857421875
0.380859375
0.37109375
0.3662109375
0.361328125
0.361328125
0.3564453125
0.3515625
0.3466796875
0.341796875
0.3369140625
0.33203125
0.3271484375
0.3271484375
0.3271484375
0.322265625
0.3271484375
0.322265625
0.3173828125
0.322265625
0.3173828125
0.3173828125
0.3173828125
0.3125
0.3173828125
0.3173828125
0.3125
0.3173828125
0.322265625
0.341796875
0.3662109375
0.390625
0.4248046875
0.458984375
0.4931640625
0.5224609375
0.546875
0.5712890625
0.595703125
0.6103515625
0.625
0.634765625
0.6396484375
0.6494140625
0.6494140625
0.6494140625
0.64453125
0.634765625
0.6298828125
0.6201171875
0.60546875
0.595703125
0.5810546875
0.5712890625
0.5615234375
0.546875
0.537109375
0.52734375
0.517578125
0.5029296875
0.4931640625
0.4833984375
0.4736328125
0.46875
0.458984375
0.44921875
0.439453125
0.4296875
0.4248046875
0.419921875
0.41015625
0.4052734375
0.3955078125
0.390625
0.380859375
0.3759765625
0.37109375
0.3662109375
0.3662109375
0.361328125
0.361328125
0.3515625
0.341796875
0.341796875
0.3369140625
0.3369140625
0.3369140625
0.33203125
0.33203125
0.3271484375
0.322265625
0.3271484375
0.322265625
0.322265625
0.322265625
0.3173828125
0.3173828125
0.3173828125
0.3173828125
0.3173828125
0.3173828125
0.3173828125
0.322265625
0.33203125
0.3515625
0.3759765625
0.4052734375
0.4443359375
0.4736328125
0.5078125
0.537109375
0.5615234375
0.5810546875
0.6005859375
0.6201171875
0.6298828125
0.634765625
0.6396484375
0.6396484375
0.6396484375
0.634765625
0.6298828125
0.6201171875
0.6103515625
0.6005859375
0.5859375
0.576171875
0.5615234375
0.546875
0.5419921875
0.52734375
0.517578125
0.5078125
0.498046875
0.48828125
0.478515625
0.4736328125
0.4638671875
0.4541015625
0.44921875
0.439453125
0.4296875
0.4248046875
0.4150390625
0.41015625
0.400390625
0.3955078125
0.390625
0.3857421875
0.380859375
0.37109375
0.3662109375
0.361328125
0.3564453125
0.3564453125
0.3564453125
0.3466796875
0.3466796875
0.341796875
0.3369140625
0.3369140625
0.33203125
0.33203125
0.3271484375
0.3271484375
0.3271484375
0.3271484375
0.322265625
0.322265625
0.322265625
0.322265625
0.322265625
0.3173828125
0.3173828125
0.3173828125
0.3173828125
0.3271484375
0.3369140625
0.361328125
0.3857421875
0.4150390625
0.44921875
0.4833984375
0.517578125
0.5419921875
0.56640625
0.5859375
0.60546875
0.6201171875
0.6298828125
0.6396484375
0.6396484375
0.6396484375
0.6396484375
0.6396484375
0.6298828125
0.625
0.615234375
0.60546875
0.595703125
0.5859375
0.576171875
0.56640625
0.556640625
0.5419921875
0.537109375
0.52734375
0.517578125
0.5078125
0.498046875
0.48828125
0.4833984375
0.4736328125
0.4638671875
0.458984375
0.44921875
0.439453125
0.4345703125
0.4248046875
0.4248046875
0.4150390625
0.41015625
0.4052734375
0.3955078125
0.3955078125
0.3857421875
0.380859375
0.3759765625
0.37109375
0.37109375
0.3662109375
0.361328125
0.361328125
0.3564453125
0.3515625
0.3515625
0.3466796875
0.3466796875
0.3466796875
0.341796875
0.341796875
0.3369140625
0.3369140625
0.3369140625
0.33203125
0.33203125
0.33203125
0.3271484375
0.33203125
0.3369140625
0.3466796875
0.3662109375
0.3857421875
0.4150390625
0.44921875
0.4833984375
0.5126953125
0.5419921875
0.56640625
0.5859375
0.60546875
0.6201171875
0.6298828125
0.6396484375
0.64453125
0.6396484375
0.6396484375
0.634765625
0.6298828125
0.6201171875
0.6103515625
0.6005859375
0.5908203125
0.5810546875
0.56640625
0.556640625
0.546875
0.5322265625
0.5224609375
0.5126953125
0.5029296875
0.4931640625
0.4833984375
0.4736328125
0.4638671875
0.4541015625
0.4541015625
0.439453125
0.4345703125
0.4248046875
0.419921875
0.4150390625
0.4052734375
0.4052734375
0.3955078125
0.3857421875
0.3857421875
0.3759765625
0.37109375
0.37109375
0.3662109375
0.361328125
0.3564453125
0.3515625
0.3515625
0.3466796875
0.341796875
0.341796875
0.3369140625
0.3369140625
0.33203125
0.33203125
0.33203125
0.3271484375
0.3271484375
0.3271484375
0.3271484375
0.322265625
0.322265625
0.3173828125
0.322265625
0.322265625
0.33203125
0.341796875
0.3564453125
0.380859375
0.4150390625
0.44921875
0.4833984375
0.5126953125
0.5419921875
0.56640625
0.5859375
0.60546875
0.615234375
0.6298828125
0.634765625
0.6396484375
0.634765625
0.634765625
0.6298828125
0.625
0.615234375
0.60546875
0.595703125
0.5859375
0.576171875
0.56640625
0.5517578125
0.537109375
0.52734375
0.517578125
0.5126953125
0.498046875
0.48828125
0.478515625
0.4736328125
0.46875
0.458984375
0.44921875
0.4443359375
0.4345703125
0.4248046875
0.419921875
0.41015625
0.4052734375
0.400390625
0.3955078125
0.390625
0.380859375
0.380859375
0.3759765625
0.37109375
0.3662109375
0.361328125
0.3564453125
0.3564453125
0.3515625
0.3515625
0.3466796875
0.341796875
0.341796875
0.3369140625
0.3369140625
0.33203125
0.3271484375
0.3271484375
0.3271484375
0.3271484375
0.322265625
0.322265625
0.322265625
0.322265625
0.322265625
0.3271484375
0.3369140625
0.3515625
0.37109375
0.4052734375
0.4345703125
0.46875
0.4931640625
0.52734375
0.5517578125
0.576171875
0.5908203125
0.60546875
0.615234375
0.625
0.6298828125
0.6298828125
0.6298828125
0.625
0.615234375
0.6103515625
0.6005859375
0.5859375
0.576171875
0.56640625
0.556640625
0.5419921875
0.537109375
0.52734375
0.5126953125
0.5029296875
0.4931640625
0.4833984375
0.478515625
0.46875
0.458984375
0.4541015625
0.4443359375
0.439453125
0.4345703125
0.4248046875
0.419921875
0.4150390625
0.41015625
0.4052734375
0.3955078125
0.3955078125
0.3857421875
0.3857421875
0.380859375
0.3759765625
0.37109375
0.3662109375
0.3662109375
0.361328125
0.3564453125
0.3564453125
0.3564453125
0.3515625
0.3515625
0.3466796875
0.3515625
0.341796875
0.3466796875
0.341796875
0.341796875
0.341796875
0.341796875
0.3369140625
0.3369140625
0.3369140625
0.3369140625
0.341796875
0.3515625
0.37109375
0.390625
0.4248046875
0.44921875
0.4833984375
0.5126953125
0.537109375
0.5615234375
0.5810546875
0.595703125
0.615234375
0.625
0.6298828125
0.6298828125
0.6298828125
0.6298828125
0.6201171875
0.6103515625
0.6005859375
0.5908203125
0.5810546875
0.5712890625
0.556640625
0.5517578125
0.537109375
0.52734375
0.517578125
0.5029296875
0.4931640625
0.4833984375
0.4736328125
0.46875
0.458984375
0.4541015625
0.44921875
0.439453125
0.4345703125
0.4248046875
0.419921875
0.4150390625
0.4052734375
0.4052734375
0.3955078125
0.3955078125
0.390625
0.3857421875
0.380859375
0.3759765625
0.37109375
0.37109375
0.3662109375
0.3662109375
0.361328125
0.3564453125
0.3564453125
0.3564453125
0.3515625
0.3515625
0.3466796875
0.3466796875
0.3466796875
0.3466796875
0.3466796875
0.3466796875
0.341796875
0.341796875
0.3369140625
0.341796875
0.341796875
0.3466796875
0.361328125
0.3759765625
0.4052734375
0.4296875
0.4638671875
0.4931640625
0.52734375
0.5517578125
0.576171875
0.595703125
0.615234375
0.6298828125
0.6396484375
0.64453125
0.6494140625
0.6494140625
0.6494140625
0.64453125
0.634765625
0.6298828125
0.615234375
0.60546875
0.595703125
0.5810546875
0.56640625
0.556640625
0.546875
0.537109375
0.5224609375
0.5126953125
0.5029296875
0.4931640625
0.478515625
0.4736328125
0.4638671875
0.458984375
0.44921875
0.4443359375
0.439453125
0.4296875
0.4248046875
0.419921875
0.4150390625
0.4052734375
0.400390625
0.3955078125
0.390625
0.3857421875
0.3857421875
0.380859375
0.3759765625
0.3759765625
0.37109375
0.37109375
0.3662109375
0.361328125
0.361328125
0.3564453125
0.3564453125
0.3515625
0.3515625
0.3466796875
0.3515625
0.3466796875
0.3466796875
0.3466796875
0.3466796875
0.341796875
0.3466796875
0.341796875
0.3466796875
0.3466796875
0.3515625
0.3662109375
0.3857421875
0.41015625
0.439453125
0.4736328125
0.5029296875
0.5322265625
0.556640625
0.5810546875
0.6005859375
0.6201171875
0.634765625
0.6396484375
0.64453125
0.6494140625
0.6494140625
0.6494140625
0.6396484375
0.634765625
0.6298828125
0.615234375
0.60546875
0.5908203125
0.5810546875
0.5712890625
0.556640625
0.5419921875
0.5322265625
0.5224609375
0.5126953125
0.498046875
0.48828125
0.478515625
0.4736328125
0.4638671875
0.4541015625
0.4443359375
0.439453125
0.4296875
0.4248046875
0.419921875
0.4150390625
0.41015625
0.4052734375
0.400390625
0.390625
0.3857421875
0.380859375
0.3759765625
0.3759765625
0.37109375
0.3662109375
0.361328125
0.361328125
0.3564453125
0.3515625
0.3515625
0.3466796875
0.341796875
0.3466796875
0.341796875
0.341796875
0.341796875
0.3369140625
0.3369140625
0.33203125
0.3369140625
0.3369140625
0.341796875
0.3564453125
0.380859375
0.400390625
0.4345703125
0.46875
0.5029296875
0.5322265625
0.556640625
0.5810546875
0.60546875
0.615234375
0.6298828125
0.64453125
0.654296875
0.6591796875
0.654296875
0.6591796875
0.6494140625
0.6494140625
0.6396484375
0.6298828125
0.6201171875
0.60546875
0.595703125
0.5859375
0.5712890625
0.5615234375
0.5517578125
0.5419921875
0.52734375
0.517578125
0.5078125
0.498046875
0.48828125
0.478515625
0.4736328125
0.46875
0.4541015625
0.44921875
0.439453125
0.4345703125
0.4248046875
0.419921875
0.4150390625
0.4052734375
0.400390625
0.3955078125
0.390625
0.3857421875
0.3857421875
0.380859375
0.3759765625
0.37109375
0.3662109375
0.361328125
0.361328125
0.3564453125
0.3515625
0.3515625
0.3466796875
0.341796875
0.341796875
0.341796875
0.3369140625
0.3369140625
0.3369140625
0.3369140625
0.3369140625
0.33203125
0.341796875
0.3466796875
0.3662109375
0.390625
0.4150390625
0.4541015625
0.48828125
0.517578125
0.546875
0.5712890625
0.595703125
0.615234375
0.634765625
0.6494140625
0.6591796875
0.6640625
0.6689453125
0.673828125
0.673828125
0.6689453125
0.6591796875
0.654296875
0.64453125
0.6298828125
0.6201171875
0.60546875
0.5908203125
0.5859375
0.5712890625
0.556640625
0.546875
0.537109375
0.52734375
0.5126953125
0.5078125
0.4931640625
0.4833984375
0.4736328125
0.4638671875
0.4541015625
0.44921875
0.439453125
0.4345703125
0.4248046875
0.4150390625
0.41015625
0.4052734375
0.3955078125
0.390625
0.3857421875
0.380859375
0.3759765625
0.37109375
0.3662109375
0.3662109375
0.3564453125
0.3564453125
0.3564453125
0.3466796875
0.3466796875
0.3466796875
0.341796875
0.341796875
0.3369140625
0.3369140625
0.33203125
0.3271484375
0.3271484375
0.3271484375
0.322265625
0.3271484375
0.322265625
0.322265625
0.322265625
0.3271484375
0.3369140625
0.3564453125
0.380859375
0.419921875
0.44921875
0.48828125
0.5224609375
0.546875
0.576171875
0.6005859375
0.6201171875
0.6396484375
0.654296875
0.6640625
0.673828125
0.6787109375
0.68359375
0.68359375
0.68359375
0.673828125
0.6640625
0.654296875
0.64453125
0.634765625
0.6201171875
0.60546875
0.595703125
0.5810546875
0.5712890625
0.556640625
0.546875
0.537109375
0.5224609375
0.5126953125
0.5029296875
0.4931640625
0.4833984375
0.4736328125
0.4638671875
0.458984375
0.44921875
0.4443359375
0.4345703125
0.4248046875
0.419921875
0.4150390625
0.41015625
0.400390625
0.400390625
0.3955078125
0.390625
0.3857421875
0.380859375
0.3759765625
0.37109375
0.3662109375
0.3662109375
0.361328125
0.3564453125
0.3564453125
0.3515625
0.3515625
0.3466796875
0.341796875
0.341796875
0.3369140625
0.3369140625
0.3369140625
0.3369140625
0.33203125
0.33203125
0.33203125
0.33203125
0.3271484375
0.3271484375
0.3271484375
0.3271484375
0.33203125
0.341796875
0.3564453125
0.3857421875
0.4150390625
0.4443359375
0.478515625
0.5078125
0.537109375
0.5615234375
0.5859375
0.6005859375
0.615234375
0.6298828125
0.634765625
0.6396484375
0.64453125
0.6396484375
0.634765625
0.6298828125
0.6201171875
0.6103515625
0.595703125
0.5859375
0.5712890625
0.556640625
0.546875
0.537109375
0.5224609375
0.5126953125
0.5029296875
0.48828125
0.478515625
0.46875
0.4638671875
0.4541015625
0.4443359375
0.439453125
0.4296875
0.419921875
0.4150390625
0.41015625
0.400390625
0.3955078125
0.390625
0.3857421875
0.380859375
0.3759765625
0.3759765625
0.3662109375
0.361328125
0.3662109375
0.361328125
0.3564453125
0.3564453125
0.3466796875
0.3466796875
0.3466796875
0.341796875
0.3369140625
0.3369140625
0.3369140625
0.3369140625
0.33203125
0.33203125
0.33203125
0.3271484375
0.33203125
0.3271484375
0.3271484375
0.3271484375
0.3271484375
0.322265625
0.322265625
0.3271484375
0.3369140625
0.3515625
0.380859375
0.4052734375
0.4345703125
0.46875
0.5029296875
0.52734375
0.556640625
0.5810546875
0.6005859375
0.615234375
0.6298828125
0.6396484375
0.6494140625
0.654296875
0.654296875
0.6494140625
0.64453125
0.6396484375
0.6298828125
0.6201171875
0.60546875
0.595703125
0.5810546875
0.5712890625
0.556640625
0.546875
0.537109375
0.52734375
0.517578125
0.5078125
0.4931640625
0.48828125
0.478515625
0.46875
0.458984375
0.4541015625
0.4443359375
0.439453125
0.4345703125
0.4248046875
0.4150390625
0.4150390625
0.4052734375
0.400390625
0.3955078125
0.390625
0.3857421875
0.380859375
0.380859375
0.3759765625
0.37109375
0.37109375
0.361328125
0.361328125
0.3564453125
0.3564453125
0.3564453125
0.3515625
0.3515625
0.3466796875
0.3466796875
0.3466796875
0.3466796875
0.341796875
0.341796875
0.341796875
0.3369140625
0.3369140625
0.3369140625
0.3369140625
0.33203125
0.33203125
0.33203125
0.3369140625
0.341796875
0.361328125
0.380859375
0.41015625
0.4443359375
0.4736328125
0.5078125
0.5322265625
0.5615234375
0.5859375
0.60546875
0.6201171875
0.6298828125
0.6396484375
0.6494140625
0.6494140625
0.654296875
0.6494140625
0.64453125
0.634765625
0.6298828125
0.6201171875
0.60546875
0.595703125
0.5810546875
0.5712890625
0.5615234375
0.546875
0.537109375
0.52734375
0.5126953125
0.5029296875
0.4931640625
0.48828125
0.478515625
0.4736328125
0.4638671875
0.458984375
0.4541015625
0.4443359375
0.439453125
0.439453125
0.4296875
0.4248046875
0.419921875
0.4150390625
0.41015625
0.4052734375
0.400390625
0.400390625
0.3955078125
0.390625
0.3857421875
0.380859375
0.380859375
0.380859375
0.3759765625
0.37109375
0.37109375
0.37109375
0.3662109375
0.361328125
0.361328125
0.3564453125
0.3564453125
0.361328125
0.3515625
0.3564453125
0.3564453125
0.3515625
0.3515625
0.3466796875
0.3466796875
0.3466796875
0.3466796875
0.3466796875
0.3466796875
0.3564453125
0.3759765625
0.400390625
0.4248046875
0.4541015625
0.478515625
0.5078125
0.5322265625
0.5517578125
0.5712890625
0.5908203125
0.595703125
0.6103515625
0.615234375
0.615234375
0.6201171875
0.615234375
0.6103515625
0.60546875
0.595703125
0.5908203125
0.5810546875
0.5712890625
0.5615234375
0.5517578125
0.5419921875
0.5322265625
0.5224609375
0.5126953125
0.5078125
0.498046875
0.4931640625
0.48828125
0.478515625
0.478515625
0.4736328125
0.46875
0.4638671875
0.458984375
0.4541015625
0.44921875
0.44921875
0.4443359375
0.439453125
0.439453125
0.4345703125
0.4345703125
0.4296875
0.4248046875
0.4248046875
0.419921875
0.4150390625
0.4150390625
0.41015625
0.41015625
0.4052734375
0.400390625
0.400390625
0.400390625
0.400390625
0.3955078125
0.3955078125
0.390625
0.390625
0.3857421875
0.3857421875
0.3857421875
0.380859375
0.380859375
0.3759765625
0.37109375
0.37109375
0.3662109375
0.37109375
0.3662109375
0.3759765625
0.3955078125
0.4248046875
0.4541015625
0.478515625
0.5078125
0.5322265625
0.556640625
0.576171875
0.595703125
0.60546875
0.6201171875
0.6298828125
0.634765625
0.6396484375
0.6396484375
0.634765625
0.6298828125
0.6298828125
0.6201171875
0.615234375
0.6103515625
0.60546875
0.595703125
0.5859375
0.5810546875
0.5712890625
0.5615234375
0.5517578125
0.546875
0.537109375
0.52734375
0.517578125
0.5078125
0.498046875
0.48828125
0.478515625
0.4736328125
0.4638671875
0.458984375
0.44921875
0.4443359375
0.4345703125
0.4296875
0.419921875
0.4150390625
0.41015625
0.4052734375
0.400390625
0.3955078125
0.390625
0.3857421875
0.380859375
0.380859375
0.3759765625
0.37109375
0.37109375
0.3662109375
0.3662109375
0.3564453125
0.3564453125
0.3564453125
0.3564453125
0.3515625
0.3466796875
0.3466796875
0.3466796875
0.341796875
0.3369140625
0.3369140625
0.3369140625
0.3369140625
0.33203125
0.33203125
0.3271484375
0.3369140625
0.3564453125
0.3759765625
0.400390625
0.4248046875
0.4541015625
0.478515625
0.5029296875
0.517578125
0.537109375
0.5419921875
0.556640625
0.56640625
0.5712890625
0.576171875
0.5810546875
0.576171875
0.576171875
0.5712890625
0.56640625
0.5615234375
0.5517578125
0.546875
0.5419921875
0.537109375
0.5322265625
0.5224609375
0.517578125
0.5126953125
0.5029296875
0.498046875
0.4931640625
0.48828125
0.478515625
0.4736328125
0.46875
0.458984375
0.458984375
0.44921875
0.439453125
0.4345703125
0.4296875
0.4248046875
0.419921875
0.4150390625
0.41015625
0.4052734375
0.400390625
0.400390625
0.3955078125
0.390625
0.390625
0.3857421875
0.380859375
0.380859375
0.3759765625
0.3759765625
0.37109375
0.37109375
0.37109375
0.3662109375
0.361328125
0.3662109375
0.3564453125
0.361328125
0.361328125
0.3564453125
0.3564453125
0.3564453125
0.3515625
0.3515625
0.3515625
0.3515625
0.3466796875
0.341796875
0.3466796875
0.3564453125
0.37109375
0.390625
0.41015625
0.439453125
0.4638671875
0.48828125
0.5126953125
0.5322265625
0.5419921875
0.556640625
0.56640625
0.576171875
0.5859375
0.5859375
0.5859375
0.5859375
0.5810546875
0.5810546875
0.576171875
0.576171875
0.56640625
0.5615234375
0.5615234375
0.5517578125
0.546875
0.537109375
0.5322265625
0.52734375
0.517578125
0.5078125
0.5029296875
0.4931640625
0.48828125
0.478515625
0.4736328125
0.4638671875
0.458984375
0.4541015625
0.4443359375
0.439453125
0.4345703125
0.4296875
0.419921875
0.4150390625
0.41015625
0.4052734375
0.400390625
0.3955078125
0.390625
0.3857421875
0.380859375
0.380859375
0.3759765625
0.37109375
0.37109375
0.3662109375
0.361328125
0.361328125
0.361328125
0.3564453125
0.3564453125
0.3564453125
0.3515625
0.3515625
0.3466796875
0.3466796875
0.341796875
0.341796875
0.3466796875
0.341796875
0.341796875
0.3369140625
0.3369140625
0.341796875
0.3515625
0.37109375
0.390625
0.4150390625
0.439453125
0.4638671875
0.48828125
0.5078125
0.517578125
0.537109375
0.5419921875
0.5517578125
0.556640625
0.556640625
0.5615234375
0.5615234375
0.556640625
0.556640625
0.5517578125
0.546875
0.546875
0.537109375
0.537109375
0.5322265625
0.5224609375
0.5224609375
0.5126953125
0.5078125
0.5029296875
0.4931640625
0.48828125
0.48828125
0.478515625
0.4736328125
0.46875
0.4638671875
0.458984375
0.44921875
0.4443359375
0.439453125
0.4296875
0.4248046875
0.4248046875
0.4150390625
0.41015625
0.4052734375
0.400390625
0.400390625
0.3955078125
0.390625
0.3857421875
0.380859375
0.380859375
0.380859375
0.3759765625
0.3759765625
0.3759765625
0.37109375
0.3662109375
0.3662109375
0.3662109375
0.3662109375
0.361328125
0.361328125
0.361328125
0.361328125
0.3564453125
0.3564453125
0.3564453125
0.3515625
0.3515625
0.3564453125
0.3564453125
0.3662109375
0.3857421875
0.400390625
0.4248046875
0.4443359375
0.4638671875
0.48828125
0.498046875
0.517578125
0.52734375
0.537109375
0.546875
0.546875
0.5517578125
0.5517578125
0.5517578125
0.5517578125
0.5419921875
0.5419921875
0.537109375
0.5322265625
0.52734375
0.5224609375
0.517578125
0.5126953125
0.5078125
0.5029296875
0.498046875
0.48828125
0.4833984375
0.4833984375
0.4736328125
0.46875
0.4638671875
0.458984375
0.44921875
0.4443359375
0.439453125
0.4345703125
0.4345703125
0.4296875
0.4248046875
0.4150390625
0.4150390625
0.41015625
0.4052734375
0.4052734375
0.3955078125
0.3955078125
0.3955078125
0.390625
0.390625
0.3857421875
0.380859375
0.380859375
0.380859375
0.3759765625
0.3759765625
0.3759765625
0.37109375
0.37109375
0.3662109375
0.3662109375
0.361328125
0.3662109375
0.3662109375
0.3759765625
0.3955078125
0.4150390625
0.4443359375
0.4736328125
0.4931640625
0.517578125
0.537109375
0.5517578125
0.56640625
0.5810546875
0.5908203125
0.595703125
0.6005859375
0.60546875
0.6005859375
0.595703125
0.595703125
0.5859375
0.5859375
0.576171875
0.5712890625
0.56640625
0.556640625
0.5517578125
0.546875
0.5322265625
0.5322265625
0.5224609375
0.5224609375
0.5126953125
0.5078125
0.5029296875
0.4931640625
0.48828125
0.4833984375
0.4736328125
0.46875
0.4638671875
0.458984375
0.4541015625
0.44921875
0.439453125
0.4345703125
0.4296875
0.4248046875
0.419921875
0.4150390625
0.41015625
0.4052734375
0.400390625
0.3955078125
0.3955078125
0.390625
0.3857421875
0.3857421875
0.380859375
0.380859375
0.380859375
0.3759765625
0.3759765625
0.3759765625
0.37109375
0.37109375
0.3662109375
0.37109375
0.3759765625
0.3955078125
0.4248046875
0.44921875
0.4833984375
0.5078125
0.537109375
0.556640625
0.5810546875
0.6005859375
0.6201171875
0.634765625
0.64453125
0.6591796875
0.6689453125
0.673828125
0.673828125
0.673828125
0.673828125
0.6689453125
0.6689453125
0.6591796875
0.6494140625
0.64453125
0.634765625
0.6298828125
0.6201171875
0.6103515625
0.6005859375
0.5908203125
0.5859375
0.5712890625
0.56640625
0.556640625
0.546875
0.537109375
0.5322265625
0.5224609375
0.5126953125
0.5078125
0.4931640625
0.48828125
0.4833984375
0.46875
0.4638671875
0.4541015625
0.44921875
0.4443359375
0.4345703125
0.4248046875
0.4248046875
0.4150390625
0.41015625
0.4052734375
0.400390625
0.3955078125
0.390625
0.3857421875
0.3857421875
0.380859375
0.380859375
0.3759765625
0.37109375
0.37109375
0.3662109375
0.361328125
0.361328125
0.361328125
0.37109375
0.3857421875
0.4150390625
0.4443359375
0.46875
0.5029296875
0.5224609375
0.546875
0.56640625
0.5859375
0.6103515625
0.625
0.634765625
0.6494140625
0.6591796875
0.6640625
0.6689453125
0.673828125
0.673828125
0.673828125
0.6689453125
0.6689453125
0.6640625
0.6591796875
0.654296875
0.64453125
0.6396484375
0.6298828125
0.6201171875
0.615234375
0.6005859375
0.5908203125
0.5859375
0.576171875
0.56640625
0.5615234375
0.5517578125
0.5419921875
0.5322265625
0.5224609375
0.517578125
0.5029296875
0.498046875
0.48828125
0.4833984375
0.4736328125
0.46875
0.458984375
0.44921875
0.4443359375
0.4345703125
0.4296875
0.4248046875
0.4150390625
0.4052734375
0.400390625
0.3955078125
0.3857421875
0.380859375
0.3759765625
0.3662109375
0.361328125
0.3564453125
0.3515625
0.3466796875
0.341796875
0.3369140625
0.3369140625
0.33203125
0.33203125
0.3271484375
0.33203125
0.3515625
0.3759765625
0.400390625
0.4296875
0.458984375
0.48828125
0.517578125
0.537109375
0.556640625
0.5810546875
0.595703125
0.6103515625
0.6201171875
0.634765625
0.6396484375
0.64453125
0.6494140625
0.654296875
0.654296875
0.654296875
0.6494140625
0.64453125
0.6396484375
0.634765625
0.6298828125
0.6201171875
0.615234375
0.6103515625
0.60546875
0.6005859375
0.595703125
0.5908203125
0.5810546875
0.576171875
0.56640625
0.5615234375
0.5517578125
0.546875
0.5419921875
0.5322265625
0.52734375
0.517578125
0.5126953125
0.5029296875
0.4931640625
0.4931640625
0.4833984375
0.478515625
0.4736328125
0.46875
0.4638671875
0.4541015625
0.44921875
0.4443359375
0.439453125
0.4345703125
0.4296875
0.4248046875
0.419921875
0.4150390625
0.41015625
0.41015625
0.4052734375
0.3955078125
0.390625
0.3857421875
0.380859375
0.380859375
0.3759765625
0.37109375
0.3662109375
0.3662109375
0.37109375
0.3857421875
0.41015625
0.4345703125
0.458984375
0.4833984375
0.5126953125
0.52734375
0.546875
0.5712890625
0.5859375
0.6005859375
0.615234375
0.625
0.6298828125
0.634765625
0.64453125
0.6494140625
0.6494140625
0.6494140625
0.6494140625
0.6494140625
0.64453125
0.64453125
0.634765625
0.6298828125
0.6298828125
0.6201171875
0.615234375
0.615234375
0.60546875
0.595703125
0.595703125
0.5859375
0.5810546875
0.5712890625
0.5615234375
0.556640625
0.5517578125
0.546875
0.5419921875
0.5322265625
0.5224609375
0.517578125
0.5078125
0.5029296875
0.498046875
0.4931640625
0.4833984375
0.478515625
0.4736328125
0.46875
0.4638671875
0.4541015625
0.44921875
0.439453125
0.4345703125
0.4296875
0.4248046875
0.419921875
0.41015625
0.400390625
0.3955078125
0.390625
0.3857421875
0.3759765625
0.37109375
0.3662109375
0.361328125
0.361328125
0.3564453125
0.3564453125
0.3662109375
0.380859375
0.400390625
0.419921875
0.439453125
0.4638671875
0.48828125
0.5078125
0.5322265625
0.5517578125
0.5712890625
0.5859375
0.6005859375
0.615234375
0.6298828125
0.6396484375
0.64453125
0.6494140625
0.654296875
0.6591796875
0.6591796875
0.654296875
0.654296875
0.6494140625
0.6494140625
0.6396484375
0.6396484375
0.634765625
0.6298828125
0.625
0.6201171875
0.615234375
0.60546875
0.6005859375
0.5908203125
0.5859375
0.576171875
0.5712890625
0.5615234375
0.5517578125
0.546875
0.5322265625
0.517578125
0.5078125
0.498046875
0.48828125
0.478515625
0.46875
0.458984375
0.44921875
0.439453125
0.4296875
0.419921875
0.41015625
0.400390625
0.390625
0.380859375
0.3759765625
0.3662109375
0.361328125
0.3515625
0.3466796875
0.3369140625
0.3271484375
0.322265625
0.3173828125
0.3076171875
0.302734375
0.2978515625
0.29296875
0.2880859375
0.2783203125
0.2783203125
0.2734375
0.2685546875
0.2783203125
0.29296875
0.3173828125
0.3369140625
0.3662109375
0.390625
0.419921875
0.4443359375
0.46875
0.4833984375
0.5078125
0.5224609375
0.537109375
0.546875
0.5615234375
0.56640625
0.5712890625
0.576171875
0.576171875
0.576171875
0.576171875
0.5712890625
0.56640625
0.56640625
0.5615234375
0.556640625
0.546875
0.5419921875
0.537109375
0.537109375
0.5322265625
0.52734375
0.5224609375
0.517578125
0.5126953125
0.5078125
0.5029296875
0.498046875
0.4931640625
0.4833984375
0.4833984375
0.4736328125
0.4638671875
0.458984375
0.44921875
0.4443359375
0.4345703125
0.4296875
0.419921875
0.4150390625
0.4052734375
0.3955078125
0.390625
0.3857421875
0.3759765625
0.3759765625
0.3662109375
0.3564453125
0.3564453125
0.3466796875
0.341796875
0.341796875
0.33203125
0.3271484375
0.322265625
0.3173828125
0.3173828125
0.3173828125
0.3076171875
0.3076171875
0.302734375
0.3125
0.322265625
0.3369140625
0.361328125
0.3857421875
0.41015625
0.4296875
0.4541015625
0.478515625
0.498046875
0.5126953125
0.52734375
0.5419921875
0.556640625
0.5615234375
0.56640625
0.576171875
0.5712890625
0.576171875
0.576171875
0.5712890625
0.56640625
0.5615234375
0.5517578125
0.546875
0.5419921875
0.537109375
0.5322265625
0.52734375
0.517578125
0.5126953125
0.5078125
0.498046875
0.498046875
0.4931640625
0.48828125
0.4833984375
0.4736328125
0.4736328125
0.4638671875
0.458984375
0.458984375
0.44921875
0.4443359375
0.4345703125
0.4296875
0.4248046875
0.419921875
0.4150390625
0.41015625
0.400390625
0.400390625
0.400390625
0.3955078125
0.3857421875
0.3857421875
0.380859375
0.380859375
0.3759765625
0.37109375
0.3662109375
0.361328125
0.361328125
0.3564453125
0.3515625
0.3515625
0.341796875
0.341796875
0.3369140625
0.33203125
0.3271484375
0.322265625
0.3173828125
0.3173828125
0.3271484375
0.341796875
0.361328125
0.3857421875
0.4052734375
0.4248046875
0.44921875
0.46875
0.4931640625
0.5078125
0.517578125
0.52734375
0.537109375
0.5419921875
0.546875
0.5517578125
0.546875
0.546875
0.5419921875
0.537109375
0.5322265625
0.52734375
0.517578125
0.5126953125
0.5029296875
0.498046875
0.48828125
0.478515625
0.4736328125
0.46875
0.458984375
0.4541015625
0.4443359375
0.4443359375
0.4345703125
0.4296875
0.4248046875
0.4150390625
0.4150390625
0.4052734375
0.400390625
0.3955078125
0.390625
0.380859375
0.3759765625
0.37109375
0.3662109375
0.361328125
0.3564453125
0.3515625
0.3466796875
0.341796875
0.341796875
0.3369140625
0.33203125
0.33203125
0.3271484375
0.322265625
0.3173828125
0.3173828125
0.3125
0.3076171875
0.302734375
0.302734375
0.2978515625
0.2978515625
0.29296875
0.29296875
0.2880859375
0.2880859375
0.283203125
0.2978515625
0.3125
0.33203125
0.361328125
0.390625
0.4150390625
0.4443359375
0.4736328125
0.4931640625
0.517578125
0.5322265625
0.546875
0.5615234375
0.5712890625
0.5810546875
0.5859375
0.5859375
0.5908203125
0.5908203125
0.5859375
0.5810546875
0.576171875
0.56640625
0.5615234375
0.556640625
0.546875
0.5419921875
0.5322265625
0.52734375
0.5224609375
0.5126953125
0.5078125
0.498046875
0.4931640625
0.4833984375
0.478515625
0.46875
0.46875
0.458984375
0.4541015625
0.4443359375
0.439453125
0.4296875
0.4248046875
0.4150390625
0.41015625
0.4052734375
0.400390625
0.3955078125
0.3857421875
0.380859375
0.3759765625
0.37109375
0.3662109375
0.361328125
0.3564453125
0.3466796875
0.341796875
0.341796875
0.3369140625
0.33203125
0.3271484375
0.322265625
0.322265625
0.3173828125
0.3173828125
0.3173828125
0.3125
0.3125
0.3076171875
0.302734375
0.3125
0.33203125
0.3564453125
0.3857421875
0.419921875
0.44921875
0.4833984375
0.5078125
0.537109375
0.5615234375
0.5810546875
0.595703125
0.6103515625
0.6201171875
0.6298828125
0.6298828125
0.6298828125
0.6298828125
0.6298828125
0.6201171875
0.615234375
0.6103515625
0.6005859375
0.5908203125
0.5810546875
0.576171875
0.56640625
0.556640625
0.5517578125
0.537109375
0.5322265625
0.517578125
0.5126953125
0.5029296875
0.4931640625
0.4833984375
0.4736328125
0.4638671875
0.4541015625
0.4443359375
0.439453125
0.4296875
0.419921875
0.4150390625
0.400390625
0.400390625
0.3955078125
0.3857421875
0.380859375
0.37109375
0.361328125
0.361328125
0.3564453125
0.3515625
0.3466796875
0.341796875
0.341796875
0.3369140625
0.33203125
0.3271484375
0.3271484375
0.322265625
0.322265625
0.3173828125
0.3125
0.3125
0.3076171875
0.3076171875
0.3173828125
0.3271484375
0.3564453125
0.3857421875
0.4150390625
0.4443359375
0.4736328125
0.498046875
0.517578125
0.5419921875
0.5615234375
0.576171875
0.5859375
0.6005859375
0.6103515625
0.615234375
0.6201171875
0.6201171875
0.6201171875
0.615234375
0.615234375
0.60546875
0.6005859375
0.595703125
0.5908203125
0.5810546875
0.5712890625
0.56640625
0.5615234375
0.5517578125
0.5419921875
0.537109375
0.52734375
0.517578125
0.5126953125
0.5029296875
0.498046875
0.4931640625
0.4833984375
0.478515625
0.46875
0.46875
0.458984375
0.4541015625
0.4443359375
0.439453125
0.4296875
0.4248046875
0.4150390625
0.4150390625
0.4052734375
0.3955078125
0.390625
0.380859375
0.3759765625
0.37109375
0.3662109375
0.361328125
0.3515625
0.3466796875
0.341796875
0.3369140625
0.33203125
0.3271484375
0.322265625
0.322265625
0.3173828125
0.3173828125
0.322265625
0.341796875
0.3662109375
0.3955078125
0.4248046875
0.4541015625
0.4833984375
0.5078125
0.537109375
0.556640625
0.576171875
0.595703125
0.6103515625
0.625
0.6396484375
0.6494140625
0.654296875
0.6591796875
0.6591796875
0.6640625
0.6640625
0.654296875
0.6494140625
0.64453125
0.64453125
0.634765625
0.6298828125
0.6201171875
0.6103515625
0.6005859375
0.595703125
0.5859375
0.5810546875
0.5712890625
0.5615234375
0.556640625
0.546875
0.5419921875
0.52734375
0.5224609375
0.517578125
0.5078125
0.498046875
0.48828125
0.4833984375
0.4736328125
0.46875
0.458984375
0.4541015625
0.4443359375
0.439453125
0.4345703125
0.4248046875
0.419921875
0.41015625
0.400390625
0.3955078125
0.3857421875
0.380859375
0.3759765625
0.3662109375
0.3662109375
0.3564453125
0.3515625
0.3466796875
0.341796875
0.3369140625
0.33203125
0.3271484375
0.322265625
0.3173828125
0.3271484375
0.3369140625
0.361328125
0.3857421875
0.41015625
0.439453125
0.46875
0.4931640625
0.517578125
0.537109375
0.5615234375
0.576171875
0.595703125
0.6103515625
0.625
0.634765625
0.6396484375
0.6494140625
0.6494140625
0.654296875
0.6494140625
0.6494140625
0.64453125
0.6396484375
0.6298828125
0.6298828125
0.6201171875
0.6103515625
0.60546875
0.595703125
0.5908203125
0.5810546875
0.5712890625
0.56640625
0.556640625
0.546875
0.5419921875
0.5322265625
0.5224609375
0.5126953125
0.5078125
0.498046875
0.48828125
0.478515625
0.4736328125
0.4638671875
0.458984375
0.44921875
0.4443359375
0.4345703125
0.4248046875
0.419921875
0.4150390625
0.4052734375
0.400390625
0.3955078125
0.3857421875
0.380859375
0.3759765625
0.3662109375
0.361328125
0.3564453125
0.3515625
0.3466796875
0.341796875
0.33203125
0.3271484375
0.322265625
0.322265625
0.3173828125
0.3125
0.3076171875
0.302734375
0.2978515625
0.3076171875
0.322265625
0.3466796875
0.3759765625
0.4052734375
0.4345703125
0.458984375
0.48828125
0.5126953125
0.5322265625
0.5517578125
0.56640625
0.5810546875
0.595703125
0.60546875
0.6103515625
0.615234375
0.615234375
0.6201171875
0.615234375
0.615234375
0.6103515625
0.6005859375
0.6005859375
0.595703125
0.5859375
0.576171875
0.5712890625
0.56640625
0.5615234375
0.5517578125
0.546875
0.5419921875
0.5322265625
0.52734375
0.517578125
0.5126953125
0.5078125
0.498046875
0.48828125
0.4833984375
0.478515625
0.4736328125
0.4638671875
0.458984375
0.44921875
0.4443359375
0.439453125
0.4296875
0.4248046875
0.4150390625
0.41015625
0.4052734375
0.3955078125
0.390625
0.3857421875
0.3759765625
0.37109375
0.3662109375
0.361328125
0.3564453125
0.3515625
0.341796875
0.341796875
0.33203125
0.3271484375
0.3271484375
0.3173828125
0.3173828125
0.3076171875
0.302734375
0.302734375
0.2978515625
0.2978515625
0.302734375
0.3173828125
0.3369140625
0.3662109375
0.390625
0.419921875
0.4443359375
0.46875
0.4931640625
0.5126953125
0.5322265625
0.546875
0.556640625
0.5712890625
0.5859375
0.5859375
0.595703125
0.595703125
0.595703125
0.595703125
0.5859375
0.5859375
0.576171875
0.5712890625
0.56640625
0.556640625
0.546875
0.5419921875
0.5322265625
0.52734375
0.5224609375
0.5126953125
0.5078125
0.498046875
0.4931640625
0.4833984375
0.4833984375
0.478515625
0.46875
0.4638671875
0.4541015625
0.44921875
0.4443359375
0.4345703125
0.4296875
0.4248046875
0.4150390625
0.41015625
0.41015625
0.4052734375
0.3955078125
0.390625
0.3857421875
0.380859375
0.3759765625
0.37109375
0.3662109375
0.3564453125
0.3515625
0.3466796875
0.341796875
0.3369140625
0.33203125
0.3271484375
0.3271484375
0.322265625
0.3173828125
0.3173828125
0.3076171875
0.302734375
0.302734375
0.2978515625
0.2978515625
0.2978515625
0.302734375
0.3271484375
0.3466796875
0.37109375
0.400390625
0.419921875
0.44921875
0.4736328125
0.48828125
0.5126953125
0.52734375
0.5419921875
0.5517578125
0.56640625
0.5712890625
0.576171875
0.5810546875
0.5810546875
0.576171875
0.576171875
0.5712890625
0.5712890625
0.5615234375
0.556640625
0.5517578125
0.546875
0.537109375
0.5322265625
0.5224609375
0.5224609375
0.517578125
0.5078125
0.5029296875
0.498046875
0.4931640625
0.4833984375
0.478515625
0.4736328125
0.46875
0.458984375
0.4541015625
0.4443359375
0.4345703125
0.4345703125
0.4248046875
0.4150390625
0.41015625
0.400390625
0.3955078125
0.3857421875
0.380859375
0.3759765625
0.3662109375
0.3662109375
0.361328125
0.361328125
0.3564453125
0.3515625
0.3515625
0.3564453125
0.3515625
0.3466796875
0.3466796875
0.3466796875
0.3466796875
0.3466796875
0.341796875
0.3466796875
0.3466796875
0.341796875
0.341796875
0.341796875
0.3564453125
0.3662109375
0.380859375
0.4052734375
0.4248046875
0.44921875
0.46875
0.48828125
0.5126953125
0.52734375
0.5419921875
0.5517578125
0.5615234375
0.5712890625
0.5810546875
0.5810546875
0.5859375
0.5859375
0.5859375
0.5859375
0.5810546875
0.576171875
0.56640625
0.5615234375
0.556640625
0.5517578125
0.5419921875
0.537109375
0.52734375
0.5224609375
0.517578125
0.5078125
0.5029296875
0.498046875
0.4931640625
0.48828125
0.478515625
0.4736328125
0.4736328125
0.46875
0.4638671875
0.4638671875
0.4541015625
0.4541015625
0.44921875
0.44921875
0.4443359375
0.439453125
0.4345703125
0.4296875
0.4248046875
0.419921875
0.4150390625
0.41015625
0.4052734375
0.3955078125
0.390625
0.3857421875
0.380859375
0.3759765625
0.3662109375
0.361328125
0.361328125
0.3564453125
0.3515625
0.3466796875
0.341796875
0.341796875
0.3369140625
0.33203125
0.3271484375
0.322265625
0.322265625
0.3173828125
0.3125
0.3173828125
0.3173828125
0.3271484375
0.3515625
0.3759765625
0.3955078125
0.419921875
0.439453125
0.458984375
0.4736328125
0.48828125
0.5029296875
0.5078125
0.517578125
0.517578125
0.517578125
0.517578125
0.517578125
0.517578125
0.5126953125
0.5029296875
0.498046875
0.4931640625
0.4931640625
0.478515625
0.4736328125
0.46875
0.4638671875
0.458984375
0.4541015625
0.4443359375
0.439453125
0.4345703125
0.4296875
0.4248046875
0.4248046875
0.419921875
0.4150390625
0.41015625
0.4052734375
0.4052734375
0.400390625
0.400390625
0.3955078125
0.390625
0.3857421875
0.3857421875
0.3759765625
0.37109375
0.37109375
0.3662109375
0.3662109375
0.361328125
0.361328125
0.3564453125
0.3515625
0.3466796875
0.341796875
0.341796875
0.3369140625
0.33203125
0.33203125
0.33203125
0.3271484375
0.3271484375
0.322265625
0.322265625
0.322265625
0.3173828125
0.3173828125
0.3173828125
0.3173828125
0.3173828125
0.322265625
0.3466796875
0.3662109375
0.3955078125
0.419921875
0.4443359375
0.4638671875
0.48828125
0.5029296875
0.5224609375
0.5322265625
0.546875
0.5517578125
0.5615234375
0.56640625
0.56640625
0.56640625
0.56640625
0.56640625
0.5615234375
0.5615234375
0.5517578125
0.546875
0.546875
0.5419921875
0.5322265625
0.5322265625
0.5224609375
0.517578125
0.5126953125
0.5029296875
0.5029296875
0.4931640625
0.48828125
0.478515625
0.46875
0.46875
0.4638671875
0.4541015625
0.44921875
0.4443359375
0.439453125
0.4345703125
0.4248046875
0.4248046875
0.4150390625
0.4052734375
0.400390625
0.3955078125
0.390625
0.3857421875
0.380859375
0.3759765625
0.37109375
0.3662109375
0.361328125
0.361328125
0.3564453125
0.3515625
0.3466796875
0.3466796875
0.3466796875
0.341796875
0.3466796875
0.341796875
0.341796875
0.341796875
0.3369140625
0.341796875
0.3369140625
0.341796875
0.3515625
0.37109375
0.400390625
0.4248046875
0.44921875
0.46875
0.4931640625
0.5126953125
0.52734375
0.5419921875
0.5517578125
0.556640625
0.56640625
0.576171875
0.5712890625
0.576171875
0.5712890625
0.5712890625
0.56640625
0.5615234375
0.556640625
0.556640625
0.5517578125
0.546875
0.5419921875
0.5322265625
0.5322265625
0.5224609375
0.517578125
0.517578125
0.5126953125
0.5078125
0.498046875
0.4931640625
0.48828125
0.4833984375
0.478515625
0.4736328125
0.46875
0.4638671875
0.4638671875
0.4541015625
0.44921875
0.4443359375
0.439453125
0.4345703125
0.4296875
0.4248046875
0.419921875
0.4150390625
0.4052734375
0.4052734375
0.3955078125
0.3955078125
0.3857421875
0.380859375
0.3759765625
0.37109375
0.3662109375
0.3564453125
0.3564453125
0.3515625
0.3466796875
0.3369140625
0.3369140625
0.33203125
0.33203125
0.3369140625
0.3515625
0.3759765625
0.400390625
0.4296875
0.4541015625
0.478515625
0.5029296875
0.52734375
0.5419921875
0.556640625
0.5712890625
0.5859375
0.595703125
0.6005859375
0.60546875
0.6103515625
0.6103515625
0.6103515625
0.60546875
0.60546875
0.6005859375
0.5908203125
0.5859375
0.5810546875
0.576171875
0.5712890625
0.56640625
0.556640625
0.5517578125
0.546875
0.537109375
0.537109375
0.52734375
0.5224609375
0.517578125
0.5078125
0.5029296875
0.498046875
0.48828125
0.48828125
0.478515625
0.4736328125
0.46875
0.458984375
0.4541015625
0.44921875
0.439453125
0.4345703125
0.4296875
0.4248046875
0.4150390625
0.4150390625
0.4052734375
0.400390625
0.400390625
0.390625
0.3857421875
0.380859375
0.3759765625
0.37109375
0.3662109375
0.361328125
0.3564453125
0.3515625
0.3466796875
0.341796875
0.3369140625
0.3369140625
0.33203125
0.33203125
0.3466796875
0.3662109375
0.3857421875
0.41015625
0.4345703125
0.4638671875
0.48828125
0.5078125
0.52734375
0.546875
0.5615234375
0.576171875
0.5859375
0.595703125
0.60546875
0.60546875
0.6103515625
0.60546875
0.60546875
0.60546875
0.6005859375
0.595703125
0.5859375
0.5810546875
0.576171875
0.5712890625
0.56640625
0.556640625
0.5517578125
0.546875
0.5419921875
0.537109375
0.52734375
0.5224609375
0.517578125
0.5078125
0.5029296875
0.498046875
0.4931640625
0.4833984375
0.478515625
0.4736328125
0.46875
0.4638671875
0.4541015625
0.4541015625
0.4443359375
0.439453125
0.4345703125
0.4248046875
0.419921875
0.4150390625
0.41015625
0.4052734375
0.400390625
0.3955078125
0.390625
0.3857421875
0.380859375
0.37109375
0.3662109375
0.361328125
0.361328125
0.3515625
0.3515625
0.3466796875
0.341796875
0.3369140625
0.3369140625
0.3466796875
0.361328125
0.380859375
0.41015625
0.4296875
0.458984375
0.478515625
0.5029296875
0.52734375
0.5419921875
0.556640625
0.576171875
0.5859375
0.595703125
0.60546875
0.60546875
0.6103515625
0.6103515625
0.60546875
0.6005859375
0.6005859375
0.595703125
0.5908203125
0.5859375
0.576171875
0.5712890625
0.56640625
0.5615234375
0.5517578125
0.546875
0.546875
0.537109375
0.5322265625
0.52734375
0.517578125
0.517578125
0.5078125
0.498046875
0.4931640625
0.48828125
0.4833984375
0.478515625
0.4736328125
0.46875
0.4638671875
0.458984375
0.4541015625
0.4443359375
0.439453125
0.4345703125
0.4296875
0.4248046875
0.4248046875
0.4150390625
0.4150390625
0.4052734375
0.400390625
0.400390625
0.390625
0.390625
0.3857421875
0.3759765625
0.37109375
0.3662109375
0.3662109375
0.361328125
0.3564453125
0.3515625
0.3466796875
0.3466796875
0.3564453125
0.37109375
0.3955078125
0.419921875
0.4345703125
0.458984375
0.4833984375
0.5078125
0.5224609375
0.537109375
0.5517578125
0.56640625
0.5712890625
0.5810546875
0.5859375
0.5908203125
0.5908203125
0.5859375
0.5859375
0.5810546875
0.5712890625
0.5712890625
0.5615234375
0.556640625
0.5517578125
0.5419921875
0.537109375
0.52734375
0.5224609375
0.5126953125
0.5078125
0.498046875
0.4931640625
0.4833984375
0.478515625
0.4736328125
0.46875
0.4638671875
0.458984375
0.44921875
0.4443359375
0.4345703125
0.4296875
0.4248046875
0.419921875
0.41015625
0.4052734375
0.400390625
0.3955078125
0.390625
0.380859375
0.380859375
0.3759765625
0.37109375
0.3662109375
0.361328125
0.361328125
0.3515625
0.3515625
0.3466796875
0.341796875
0.341796875
0.3369140625
0.33203125
0.33203125
0.322265625
0.3271484375
0.322265625
0.3173828125
0.322265625
0.3369140625
0.3564453125
0.3759765625
0.400390625
0.4248046875
0.44921875
0.46875
0.48828125
0.5078125
0.5224609375
0.537109375
0.546875
0.556640625
0.5615234375
0.5615234375
0.56640625
0.56640625
0.5615234375
0.556640625
0.5517578125
0.546875
0.5419921875
0.5322265625
0.52734375
0.517578125
0.5126953125
0.5029296875
0.4931640625
0.48828125
0.4833984375
0.4736328125
0.46875
0.4638671875
0.458984375
0.4541015625
0.44921875
0.439453125
0.439453125
0.4296875
0.4248046875
0.4248046875
0.419921875
0.4150390625
0.41015625
0.4052734375
0.4052734375
0.3955078125
0.3955078125
0.3857421875
0.3857421875
0.380859375
0.3759765625
0.380859375
0.37109375
0.3662109375
0.361328125
0.3564453125
0.3564453125
0.3564453125
0.3515625
0.3515625
0.3466796875
0.3466796875
0.341796875
0.341796875
0.3369140625
0.3369140625
0.3369140625
0.33203125
0.33203125
0.3369140625
0.3466796875
0.3662109375
0.390625
0.419921875
0.4443359375
0.46875
0.4931640625
0.5126953125
0.52734375
0.5419921875
0.5517578125
0.5615234375
0.5712890625
0.576171875
0.5810546875
0.5810546875
0.576171875
0.5712890625
0.5712890625
0.5615234375
0.556640625
0.546875
0.5419921875
0.537109375
0.52734375
0.5224609375
0.5126953125
0.5078125
0.5029296875
0.4931640625
0.4833984375
0.478515625
0.4736328125
0.46875
0.4638671875
0.4541015625
0.44921875
0.439453125
0.439453125
0.4296875
0.4296875
0.419921875
0.4150390625
0.4150390625
0.41015625
0.4052734375
0.400390625
0.3955078125
0.3955078125
0.3857421875
0.3857421875
0.3857421875
0.3759765625
0.3759765625
0.37109375
0.37109375
0.3662109375
0.361328125
0.361328125
0.3564453125
0.3515625
0.3515625
0.3515625
0.3466796875
0.3466796875
0.341796875
0.341796875
0.341796875
0.341796875
0.3515625
0.37109375
0.3955078125
0.4248046875
0.44921875
0.4736328125
0.498046875
0.517578125
0.537109375
0.5517578125
0.56640625
0.576171875
0.5810546875
0.5908203125
0.595703125
0.6005859375
0.6005859375
0.6005859375
0.595703125
0.5908203125
0.5908203125
0.5810546875
0.576171875
0.5712890625
0.5615234375
0.556640625
0.546875
0.5419921875
0.537109375
0.52734375
0.5224609375
0.5126953125
0.5078125
0.498046875
0.4931640625
0.48828125
0.478515625
0.4736328125
0.46875
0.458984375
0.458984375
0.4541015625
0.4443359375
0.4443359375
0.4345703125
0.4296875
0.4248046875
0.419921875
0.4150390625
0.41015625
0.4052734375
0.400390625
0.400390625
0.3955078125
0.3955078125
0.380859375
0.380859375
0.380859375
0.37109375
0.37109375
0.361328125
0.361328125
0.361328125
0.3515625
0.3564453125
0.361328125
0.3759765625
0.400390625
0.4248046875
0.44921875
0.4736328125
0.498046875
0.5224609375
0.5419921875
0.5615234375
0.576171875
0.5908203125
0.60546875
0.6201171875
0.6298828125
0.634765625
0.6396484375
0.64453125
0.64453125
0.6396484375
0.634765625
0.634765625
0.625
0.615234375
0.60546875
0.6005859375
0.5908203125
0.5859375
0.576171875
0.5712890625
0.5615234375
0.556640625
0.5517578125
0.546875
0.537109375
0.52734375
0.5224609375
0.517578125
0.5126953125
0.5029296875
0.4931640625
0.48828125
0.4833984375
0.4736328125
0.46875
0.4638671875
0.4541015625
0.44921875
0.4443359375
0.439453125
0.4345703125
0.419921875
0.419921875
0.41015625
0.41015625
0.4052734375
0.400390625
0.390625
0.390625
0.380859375
0.380859375
0.3759765625
0.3662109375
0.3662109375
0.361328125
0.3515625
0.3515625
0.3466796875
0.341796875
0.3369140625
0.3466796875
0.3662109375
0.380859375
0.41015625
0.439453125
0.4638671875
0.4931640625
0.517578125
0.537109375
0.556640625
0.5810546875
0.595703125
0.6103515625
0.625
0.634765625
0.6494140625
0.6494140625
0.6591796875
0.6591796875
0.6640625
0.6640625
0.6591796875
0.654296875
0.6396484375
0.634765625
0.6298828125
0.6201171875
0.6103515625
0.6005859375
0.595703125
0.5859375
0.576171875
0.5712890625
0.5615234375
0.556640625
0.546875
0.5419921875
0.5322265625
0.5224609375
0.517578125
0.5029296875
0.498046875
0.48828125
0.478515625
0.4736328125
0.4638671875
0.458984375
0.44921875
0.439453125
0.4345703125
0.4296875
0.4150390625
0.41015625
0.4052734375
0.400390625
0.3955078125
0.3857421875
0.380859375
0.3759765625
0.37109375
0.3662109375
0.3564453125
0.3564453125
0.3466796875
0.3466796875
0.341796875
0.3369140625
0.3369140625
0.3271484375
0.322265625
0.322265625
0.322265625
0.3173828125
0.3173828125
0.3125
0.3271484375
0.3466796875
0.37109375
0.400390625
0.4296875
0.4541015625
0.4833984375
0.5126953125
0.537109375
0.556640625
0.576171875
0.5908203125
0.6103515625
0.6201171875
0.634765625
0.6396484375
0.6494140625
0.654296875
0.654296875
0.654296875
0.6494140625
0.6494140625
0.6396484375
0.6396484375
0.6298828125
0.6201171875
0.615234375
0.60546875
0.595703125
0.5859375
0.5859375
0.576171875
0.56640625
0.5615234375
0.5517578125
0.5419921875
0.537109375
0.52734375
0.517578125
0.5078125
0.5029296875
0.4931640625
0.4833984375
0.478515625
0.4736328125
0.458984375
0.4541015625
0.4443359375
0.439453125
0.4345703125
0.4248046875
0.419921875
0.41015625
0.4052734375
0.4052734375
0.3955078125
0.3857421875
0.3857421875
0.3759765625
0.37109375
0.3662109375
0.3564453125
0.3515625
0.3466796875
0.341796875
0.3369140625
0.33203125
0.322265625
0.3173828125
0.3173828125
0.3125
0.3076171875
0.302734375
0.302734375
0.2978515625
0.2978515625
0.3076171875
0.322265625
0.3515625
0.380859375
0.4150390625
0.439453125
0.46875
0.4931640625
0.517578125
0.537109375
0.5517578125
0.56640625
0.5810546875
0.595703125
0.60546875
0.6103515625
0.615234375
0.6201171875
0.6201171875
0.6201171875
0.615234375
0.6103515625
0.6005859375
0.5908203125
0.5810546875
0.576171875
0.5712890625
0.5615234375
0.5517578125
0.5419921875
0.537109375
0.5322265625
0.5224609375
0.517578125
0.5078125
0.498046875
0.4931640625
0.48828125
0.478515625
0.4736328125
0.46875
0.458984375
0.4541015625
0.439453125
0.4345703125
0.4296875
0.419921875
0.4150390625
0.41015625
0.400390625
0.3955078125
0.3857421875
0.380859375
0.380859375
0.37109375
0.37109375
0.3662109375
0.3564453125
0.3564453125
0.3466796875
0.3466796875
0.341796875
0.3369140625
0.33203125
0.3271484375
0.3271484375
0.322265625
0.3173828125
0.3076171875
0.3076171875
0.302734375
0.302734375
0.2978515625
0.2978515625
0.29296875
0.2880859375
0.29296875
0.302734375
0.3173828125
0.3466796875
0.37109375
0.3955078125
0.419921875
0.4443359375
0.4638671875
0.4833984375
0.5029296875
0.5126953125
0.52734375
0.5322265625
0.5419921875
0.546875
0.546875
0.546875
0.5419921875
0.537109375
0.5322265625
0.52734375
0.5224609375
0.5078125
0.5029296875
0.498046875
0.4833984375
0.478515625
0.4736328125
0.458984375
0.4541015625
0.44921875
0.439453125
0.439453125
0.4296875
0.4248046875
0.419921875
0.4150390625
0.41015625
0.4052734375
0.400390625
0.3955078125
0.3857421875
0.380859375
0.3759765625
0.37109375
0.37109375
0.361328125
0.361328125
0.3564453125
0.3515625
0.3515625
0.3466796875
0.3466796875
0.341796875
0.3369140625
0.3369140625
0.33203125
0.33203125
0.33203125
0.322265625
0.3271484375
0.322265625
0.3173828125
0.3173828125
0.3173828125
0.3125
0.3125
0.3076171875
0.302734375
0.3076171875
0.302734375
0.2978515625
0.2978515625
0.2978515625
0.2978515625
0.3076171875
0.322265625
0.341796875
0.37109375
0.3955078125
0.4248046875
0.44921875
0.4736328125
0.498046875
0.5126953125
0.52734375
0.5419921875
0.5517578125
0.5615234375
0.5615234375
0.56640625
0.56640625
0.56640625
0.5615234375
0.556640625
0.5517578125
0.5419921875
0.537109375
0.52734375
0.5224609375
0.5126953125
0.5078125
0.498046875
0.498046875
0.48828125
0.478515625
0.478515625
0.4736328125
0.4638671875
0.458984375
0.4541015625
0.44921875
0.4443359375
0.439453125
0.4345703125
0.4248046875
0.4248046875
0.419921875
0.4150390625
0.41015625
0.4052734375
0.400390625
0.3955078125
0.390625
0.3857421875
0.380859375
0.380859375
0.3759765625
0.37109375
0.3662109375
0.361328125
0.3564453125
0.3564453125
0.3515625
0.3466796875
0.341796875
0.3369140625
0.33203125
0.33203125
0.3271484375
0.33203125
0.322265625
0.322265625
0.3173828125
0.322265625
0.3173828125
0.3173828125
0.3271484375
0.3369140625
0.361328125
0.3857421875
0.41015625
0.439453125
0.46875
0.48828125
0.5126953125
0.5322265625
0.546875
0.556640625
0.5712890625
0.5810546875
0.5859375
0.5908203125
0.5908203125
0.595703125
0.5908203125
0.5859375
0.5859375
0.576171875
0.5712890625
0.56640625
0.556640625
0.5517578125
0.5419921875
0.537109375
0.52734375
0.5224609375
0.517578125
0.5126953125
0.5029296875
0.498046875
0.4931640625
0.48828125
0.478515625
0.4736328125
0.46875
0.4638671875
0.4541015625
0.4541015625
0.44921875
0.439453125
0.4345703125
0.4248046875
0.419921875
0.4150390625
0.41015625
0.4052734375
0.400390625
0.3955078125
0.3857421875
0.3857421875
0.380859375
0.37109375
0.37109375
0.3662109375
0.3564453125
0.3564453125
0.3515625
0.3466796875
0.341796875
0.341796875
0.3369140625
0.33203125
0.33203125
0.33203125
0.3271484375
0.3271484375
0.322265625
0.322265625
0.3271484375
0.3369140625
0.3564453125
0.380859375
0.41015625
0.439453125
0.458984375
0.4833984375
0.5029296875
0.5224609375
0.5419921875
0.5517578125
0.56640625
0.576171875
0.5859375
0.5859375
0.5908203125
0.5908203125
0.5908203125
0.5810546875
0.5810546875
0.576171875
0.56640625
0.5615234375
0.5517578125
0.546875
0.537109375
0.5322265625
0.5224609375
0.5126953125
0.5029296875
0.498046875
0.4931640625
0.4833984375
0.478515625
0.46875
0.458984375
0.4541015625
0.44921875
0.4443359375
0.4345703125
0.4296875
0.419921875
0.4150390625
0.41015625
0.4052734375
0.400390625
0.3955078125
0.390625
0.3857421875
0.3857421875
0.3759765625
0.37109375
0.3662109375
0.361328125
0.361328125
0.3564453125
0.3564453125
0.3515625
0.3466796875
0.3466796875
0.341796875
0.3369140625
0.3369140625
0.3369140625
0.33203125
0.33203125
0.33203125
0.3271484375
0.3271484375
0.3271484375
0.3271484375
0.322265625
0.322265625
0.322265625
0.322265625
0.3369140625
0.3564453125
0.3759765625
0.400390625
0.4248046875
0.44921875
0.4736328125
0.4931640625
0.5126953125
0.52734375
0.5419921875
0.5517578125
0.556640625
0.56640625
0.5712890625
0.56640625
0.56640625
0.5615234375
0.556640625
0.546875
0.5419921875
0.5322265625
0.52734375
0.517578125
0.5078125
0.5029296875
0.4931640625
0.48828125
0.4833984375
0.478515625
0.4736328125
0.46875
0.4638671875
0.4541015625
0.4541015625
0.4443359375
0.4345703125
0.4345703125
0.4296875
0.4248046875
0.419921875
0.41015625
0.4052734375
0.400390625
0.3955078125
0.3955078125
0.3955078125
0.3857421875
0.380859375
0.380859375
0.3759765625
0.380859375
0.3759765625
0.3759765625
0.37109375
0.37109375
0.3662109375
0.3662109375
0.3662109375
0.361328125
0.3564453125
0.3564453125
0.3564453125
0.3515625
0.3515625
0.3466796875
0.3466796875
0.3466796875
0.3466796875
0.341796875
0.341796875
0.341796875
0.3466796875
0.3662109375
0.3857421875
0.41015625
0.4345703125
0.4638671875
0.48828125
0.5126953125
0.52734375
0.546875
0.556640625
0.5712890625
0.576171875
0.5810546875
0.5810546875
0.5810546875
0.5810546875
0.576171875
0.5712890625
0.5615234375
0.5517578125
0.546875
0.537109375
0.5322265625
0.5224609375
0.517578125
0.5126953125
0.5029296875
0.4931640625
0.48828125
0.4833984375
0.4736328125
0.46875
0.4638671875
0.458984375
0.4541015625
0.44921875
0.4443359375
0.4345703125
0.4296875
0.4296875
0.419921875
0.4150390625
0.41015625
0.4052734375
0.400390625
0.3955078125
0.3955078125
0.390625
0.3857421875
0.380859375
0.380859375
0.3759765625
0.37109375
0.37109375
0.37109375
0.3662109375
0.3662109375
0.361328125
0.361328125
0.3564453125
0.3515625
0.3515625
0.3515625
0.3466796875
0.3466796875
0.341796875
0.341796875
0.341796875
0.3466796875
0.361328125
0.380859375
0.41015625
0.4345703125
0.4638671875
0.48828125
0.5126953125
0.537109375
0.556640625
0.5712890625
0.5908203125
0.6005859375
0.6103515625
0.6201171875
0.625
0.6298828125
0.6298828125
0.625
0.6201171875
0.615234375
0.6103515625
0.6005859375
0.5908203125
0.5859375
0.576171875
0.5615234375
0.5517578125
0.546875
0.537109375
0.52734375
0.5224609375
0.5126953125
0.5078125
0.498046875
0.48828125
0.4833984375
0.4736328125
0.46875
0.4638671875
0.4541015625
0.44921875
0.439453125
0.4345703125
0.4248046875
0.419921875
0.4150390625
0.4052734375
0.400390625
0.3955078125
0.390625
0.3857421875
0.3857421875
0.380859375
0.3759765625
0.37109375
0.3662109375
0.3662109375
0.361328125
0.361328125
0.3564453125
0.3564453125
0.3564453125
0.3515625
0.3515625
0.3515625
0.3466796875
0.3515625
0.3466796875
0.341796875
0.3466796875
0.3466796875
0.3662109375
0.3857421875
0.4150390625
0.439453125
0.46875
0.498046875
0.5224609375
0.546875
0.56640625
0.5908203125
0.60546875
0.615234375
0.6298828125
0.634765625
0.6396484375
0.64453125
0.64453125
0.64453125
0.6396484375
0.634765625
0.6298828125
0.6201171875
0.6103515625
0.6005859375
0.5908203125
0.5810546875
0.5712890625
0.5615234375
0.5517578125
0.546875
0.537109375
0.5224609375
0.517578125
0.5078125
0.498046875
0.48828125
0.4833984375
0.4736328125
0.46875
0.4638671875
0.4541015625
0.4443359375
0.439453125
0.4345703125
0.4248046875
0.419921875
0.4150390625
0.4052734375
0.4052734375
0.3955078125
0.390625
0.390625
0.380859375
0.380859375
0.3759765625
0.37109375
0.361328125
0.361328125
0.3564453125
0.3564453125
0.3564453125
0.3515625
0.3515625
0.3466796875
0.3466796875
0.341796875
0.341796875
0.341796875
0.3369140625
0.3369140625
0.33203125
0.33203125
0.341796875
0.3515625
0.37109375
0.400390625
0.4248046875
0.4541015625
0.4833984375
0.5078125
0.5322265625
0.5517578125
0.5712890625
0.5908203125
0.6005859375
0.6103515625
0.6201171875
0.625
0.625
0.625
0.6201171875
0.6201171875
0.6103515625
0.60546875
0.595703125
0.5859375
0.5810546875
0.56640625
0.5615234375
0.5517578125
0.5419921875
0.5322265625
0.5224609375
0.5126953125
0.5078125
0.498046875
0.4931640625
0.4833984375
0.4736328125
0.46875
0.4638671875
0.4541015625
0.44921875
0.439453125
0.4345703125
0.4296875
0.419921875
0.4150390625
0.41015625
0.4052734375
0.3955078125
0.3955078125
0.3857421875
0.3857421875
0.3759765625
0.3759765625
0.37109375
0.3662109375
0.3662109375
0.3662109375
0.3564453125
0.3564453125
0.3515625
0.3515625
0.3515625
0.3466796875
0.3466796875
0.3466796875
0.341796875
0.341796875
0.3369140625
0.3369140625
0.3369140625
0.33203125
0.33203125
0.33203125
0.3369140625
0.3515625
0.3662109375
0.3955078125
0.4248046875
0.4541015625
0.4833984375
0.5126953125
0.537109375
0.556640625
0.576171875
0.5908203125
0.60546875
0.6103515625
0.6201171875
0.625
0.6298828125
0.6298828125
0.6298828125
0.6201171875
0.615234375
0.6103515625
0.6005859375
0.5908203125
0.5859375
0.576171875
0.56640625
0.556640625
0.5517578125
0.5419921875
0.537109375
0.52734375
0.5224609375
0.517578125
0.5078125
0.498046875
0.4931640625
0.4833984375
0.478515625
0.4736328125
0.46875
0.4638671875
0.4541015625
0.4443359375
0.4443359375
0.4345703125
0.4248046875
0.4150390625
0.41015625
0.4052734375
0.400390625
0.3955078125
0.3857421875
0.380859375
0.3759765625
0.3759765625
0.37109375
0.3662109375
0.361328125
0.361328125
0.3564453125
0.3515625
0.3515625
0.3466796875
0.3466796875
0.3466796875
0.3466796875
0.341796875
0.341796875
0.3369140625
0.33203125
0.33203125
0.33203125
0.33203125
0.33203125
0.341796875
0.3564453125
0.380859375
0.4052734375
0.4345703125
0.46875
0.4931640625
0.5126953125
0.537109375
0.5517578125
0.5712890625
0.5810546875
0.5908203125
0.595703125
0.60546875
0.6103515625
0.60546875
0.60546875
0.6005859375
0.6005859375
0.5859375
0.5810546875
0.576171875
0.5615234375
0.556640625
0.5517578125
0.5419921875
0.537109375
0.52734375
0.517578125
0.5126953125
0.5029296875
0.4931640625
0.48828125
0.478515625
0.4736328125
0.4638671875
0.458984375
0.44921875
0.44921875
0.439453125
0.4345703125
0.4248046875
0.4150390625
0.41015625
0.4052734375
0.400390625
0.390625
0.3857421875
0.380859375
0.3759765625
0.37109375
0.3662109375
0.361328125
0.361328125
0.3564453125
0.3515625
0.3515625
0.3466796875
0.3466796875
0.341796875
0.3369140625
0.3369140625
0.3369140625
0.3369140625
0.33203125
0.33203125
0.33203125
0.3271484375
0.3271484375
0.3271484375
0.3271484375
0.33203125
0.341796875
0.3564453125
0.380859375
0.41015625
0.439453125
0.46875
0.498046875
0.5224609375
0.5419921875
0.56640625
0.5810546875
0.595703125
0.60546875
0.615234375
0.6201171875
0.6201171875
0.6201171875
0.6201171875
0.615234375
0.6103515625
0.60546875
0.595703125
0.5859375
0.576171875
0.5712890625
0.5615234375
0.5517578125
0.546875
0.537109375
0.5322265625
0.5224609375
0.5126953125
0.5078125
0.498046875
0.4931640625
0.4833984375
0.4736328125
0.46875
0.458984375
0.4541015625
0.4443359375
0.439453125
0.4296875
0.4248046875
0.4150390625
0.41015625
0.4052734375
0.400390625
0.3955078125
0.390625
0.3857421875
0.380859375
0.380859375
0.37109375
0.3662109375
0.3662109375
0.361328125
0.3564453125
0.3564453125
0.3515625
0.3466796875
0.3466796875
0.341796875
0.341796875
0.341796875
0.3369140625
0.33203125
0.33203125
0.33203125
0.33203125
0.3271484375
0.33203125
0.3369140625
0.3515625
0.3759765625
0.400390625
0.4296875
0.458984375
0.48828125
0.517578125
0.5419921875
0.5615234375
0.576171875
0.5908203125
0.60546875
0.6103515625
0.6201171875
0.6201171875
0.625
0.625
0.615234375
0.6201171875
0.6103515625
0.60546875
0.595703125
0.5859375
0.5810546875
0.5712890625
0.5615234375
0.5517578125
0.546875
0.5419921875
0.5322265625
0.5224609375
0.5224609375
0.5078125
0.5029296875
0.4931640625
0.48828125
0.4833984375
0.478515625
0.4736328125
0.4638671875
0.458984375
0.44921875
0.4443359375
0.4345703125
0.4345703125
0.419921875
0.419921875
0.4150390625
0.4052734375
0.4052734375
0.3955078125
0.390625
0.390625
0.3857421875
0.380859375
0.380859375
0.37109375
0.37109375
0.3662109375
0.361328125
0.361328125
0.3564453125
0.3564453125
0.3466796875
0.3466796875
0.341796875
0.341796875
0.341796875
0.3369140625
0.33203125
0.33203125
0.33203125
0.341796875
0.361328125
0.390625
0.419921875
0.4443359375
0.4736328125
0.498046875
0.5224609375
0.546875
0.56640625
0.5810546875
0.5908203125
0.60546875
0.615234375
0.615234375
0.6201171875
0.6201171875
0.6201171875
0.615234375
0.60546875
0.6005859375
0.5908203125
0.5859375
0.576171875
0.56640625
0.556640625
0.5517578125
0.5419921875
0.537109375
0.52734375
0.517578125
0.5126953125
0.5029296875
0.498046875
0.4931640625
0.4833984375
0.478515625
0.4736328125
0.4638671875
0.4541015625
0.44921875
0.4443359375
0.4345703125
0.4248046875
0.4248046875
0.4150390625
0.4052734375
0.400390625
0.3955078125
0.3857421875
0.3857421875
0.380859375
0.37109375
0.3662109375
0.3662109375
0.361328125
0.3564453125
0.3564453125
0.3515625
0.3466796875
0.3466796875
0.341796875
0.341796875
0.3369140625
0.3369140625
0.3369140625
0.33203125
0.33203125
0.33203125
0.3271484375
0.3271484375
0.33203125
0.341796875
0.3662109375
0.3857421875
0.41015625
0.439453125
0.46875
0.48828125
0.5126953125
0.5322265625
0.5517578125
0.5615234375
0.5712890625
0.576171875
0.5810546875
0.5859375
0.5859375
0.5810546875
0.5810546875
0.5712890625
0.56640625
0.5615234375
0.546875
0.537109375
0.537109375
0.5224609375
0.517578125
0.5078125
0.5029296875
0.4931640625
0.4833984375
0.478515625
0.4736328125
0.4638671875
0.4541015625
0.44921875
0.439453125
0.4345703125
0.4296875
0.4248046875
0.419921875
0.41015625
0.41015625
0.4052734375
0.400390625
0.390625
0.3857421875
0.3857421875
0.380859375
0.3759765625
0.3759765625
0.37109375
0.3662109375
0.3662109375
0.3564453125
0.361328125
0.3515625
0.3564453125
0.3515625
0.3466796875
0.3466796875
0.3466796875
0.3466796875
0.341796875
0.341796875
0.341796875
0.341796875
0.3369140625
0.341796875
0.341796875
0.3515625
0.3662109375
0.390625
0.4150390625
0.44921875
0.4736328125
0.5029296875
0.5322265625
0.5517578125
0.5712890625
0.5859375
0.6005859375
0.615234375
0.625
0.6298828125
0.6298828125
0.6298828125
0.6298828125
0.6298828125
0.6201171875
0.6201171875
0.6103515625
0.6005859375
0.595703125
0.5859375
0.576171875
0.5712890625
0.5615234375
0.556640625
0.546875
0.537109375
0.5322265625
0.52734375
0.5224609375
0.5126953125
0.5078125
0.5029296875
0.4931640625
0.48828125
0.478515625
0.4736328125
0.46875
0.4638671875
0.4541015625
0.44921875
0.439453125
0.439453125
0.4296875
0.4248046875
0.4150390625
0.4052734375
0.400390625
0.3955078125
0.3857421875
0.3857421875
0.380859375
0.37109375
0.37109375
0.3662109375
0.361328125
0.3564453125
0.3515625
0.3515625
0.3466796875
0.341796875
0.341796875
0.3369140625
0.341796875
0.3515625
0.3662109375
0.390625
0.419921875
0.44921875
0.478515625
0.5126953125
0.537109375
0.5615234375
0.5859375
0.60546875
0.6201171875
0.634765625
0.6494140625
0.6591796875
0.6689453125
0.673828125
0.673828125
0.673828125
0.673828125
0.6689453125
0.6640625
0.654296875
0.64453125
0.6396484375
0.6298828125
0.615234375
0.6103515625
0.6005859375
0.595703125
0.5810546875
0.5712890625
0.5615234375
0.5517578125
0.546875
0.537109375
0.5224609375
0.517578125
0.5078125
0.4931640625
0.48828125
0.478515625
0.46875
0.458984375
0.44921875
0.4443359375
0.4296875
0.419921875
0.4150390625
0.4052734375
0.3955078125
0.390625
0.380859375
0.3759765625
0.3662109375
0.361328125
0.3564453125
0.3515625
0.3466796875
0.341796875
0.33203125
0.3271484375
0.322265625
0.3173828125
0.3173828125
0.3076171875
0.3076171875
0.2978515625
0.302734375
0.2978515625
0.302734375
0.3173828125
0.3369140625
0.3564453125
0.380859375
0.4150390625
0.4443359375
0.4638671875
0.4931640625
0.5126953125
0.5322265625
0.546875
0.556640625
0.56640625
0.5712890625
0.576171875
0.5810546875
0.5810546875
0.5810546875
0.5712890625
0.5712890625
0.5615234375
0.556640625
0.5517578125
0.5419921875
0.537109375
0.52734375
0.517578125
0.5126953125
0.498046875
0.48828125
0.4833984375
0.4736328125
0.46875
0.4638671875
0.4541015625
0.4443359375
0.439453125
0.4296875
0.4296875
0.4150390625
0.4150390625
0.41015625
0.400390625
0.3955078125
0.390625
0.3857421875
0.380859375
0.3759765625
0.3759765625
0.37109375
0.3662109375
0.361328125
0.361328125
0.3564453125
0.3564453125
0.3515625
0.3515625
0.3466796875
0.3466796875
0.3466796875
0.341796875
0.341796875
0.341796875
0.3369140625
0.3369140625
0.3466796875
0.361328125
0.3857421875
0.4150390625
0.44921875
0.4736328125
0.5078125
0.537109375
0.5615234375
0.5810546875
0.6005859375
0.6201171875
0.6298828125
0.6494140625
0.6591796875
0.6640625
0.6689453125
0.6689453125
0.6689453125
0.6689453125
0.6591796875
0.654296875
0.64453125
0.634765625
0.6298828125
0.615234375
0.60546875
0.595703125
0.5810546875
0.5712890625
0.5615234375
0.546875
0.537109375
0.52734375
0.5224609375
0.5126953125
0.5029296875
0.4931640625
0.4833984375
0.4736328125
0.46875
0.4541015625
0.44921875
0.4443359375
0.4296875
0.4248046875
0.41015625
0.400390625
0.3955078125
0.390625
0.380859375
0.3759765625
0.37109375
0.3662109375
0.361328125
0.3564453125
0.3466796875
0.3466796875
0.341796875
0.3369140625
0.3369140625
0.33203125
0.3271484375
0.3271484375
0.322265625
0.3173828125
0.3173828125
0.3125
0.3125
0.3125
0.3173828125
0.3369140625
0.3564453125
0.3857421875
0.419921875
0.4541015625
0.48828125
0.517578125
0.5419921875
0.56640625
0.5908203125
0.6103515625
0.6298828125
0.6396484375
0.654296875
0.6591796875
0.6689453125
0.673828125
0.673828125
0.673828125
0.6689453125
0.6591796875
0.654296875
0.64453125
0.634765625
0.6298828125
0.6201171875
0.6103515625
0.60546875
0.6005859375
0.5908203125
0.5810546875
0.576171875
0.5712890625
0.5615234375
0.556640625
0.546875
0.5419921875
0.5322265625
0.52734375
0.5126953125
0.5078125
0.5029296875
0.48828125
0.478515625
0.4736328125
0.458984375
0.44921875
0.439453125
0.4345703125
0.4248046875
0.4150390625
0.41015625
0.3955078125
0.3955078125
0.3857421875
0.3759765625
0.37109375
0.3662109375
0.3564453125
0.3515625
0.3466796875
0.341796875
0.3369140625
0.3271484375
0.3271484375
0.322265625
0.3173828125
0.3173828125
0.3125
0.3125
0.3076171875
0.3076171875
0.302734375
0.302734375
0.3173828125
0.33203125
0.3662109375
0.390625
0.4248046875
0.4541015625
0.48828125
0.5126953125
0.537109375
0.556640625
0.576171875
0.5908203125
0.60546875
0.6201171875
0.6298828125
0.634765625
0.634765625
0.6396484375
0.6396484375
0.634765625
0.634765625
0.6298828125
0.615234375
0.6103515625
0.6005859375
0.5908203125
0.5810546875
0.5712890625
0.5615234375
0.5517578125
0.546875
0.537109375
0.5224609375
0.517578125
0.5029296875
0.4931640625
0.4833984375
0.4736328125
0.4638671875
0.4541015625
0.4443359375
0.4345703125
0.4248046875
0.4150390625
0.41015625
0.400390625
0.3955078125
0.390625
0.380859375
0.3759765625
0.3662109375
0.3662109375
0.361328125
0.3564453125
0.3515625
0.3466796875
0.341796875
0.3369140625
0.33203125
0.3271484375
0.3271484375
0.322265625
0.322265625
0.3173828125
0.3125
0.3125
0.3076171875
0.3076171875
0.3076171875
0.3076171875
0.302734375
0.2978515625
0.2978515625
0.2978515625
0.2978515625
0.302734375
0.3125
0.33203125
0.361328125
0.3955078125
0.4248046875
0.458984375
0.4833984375
0.5126953125
0.537109375
0.556640625
0.576171875
0.595703125
0.60546875
0.615234375
0.6201171875
0.6298828125
0.6298828125
0.6298828125
0.6298828125
0.615234375
0.6103515625
0.60546875
0.595703125
0.5859375
0.576171875
0.56640625
0.556640625
0.546875
0.5322265625
0.52734375
0.517578125
0.5029296875
0.4931640625
0.4833984375
0.4736328125
0.4638671875
0.4541015625
0.4443359375
0.4345703125
0.419921875
0.419921875
0.41015625
0.400390625
0.3955078125
0.3857421875
0.380859375
0.37109375
0.3662109375
0.361328125
0.3515625
0.3515625
0.3466796875
0.341796875
0.3369140625
0.33203125
0.3271484375
0.322265625
0.322265625
0.3173828125
0.3173828125
0.3173828125
0.3125
0.3125
0.302734375
0.3076171875
0.302734375
0.302734375
0.2978515625
0.2978515625
0.302734375
0.2978515625
0.2978515625
0.2978515625
0.302734375
0.3173828125
0.341796875
0.3759765625
0.4052734375
0.439453125
0.478515625
0.5126953125
0.537109375
0.5615234375
0.5859375
0.60546875
0.625
0.634765625
0.6494140625
0.6640625
0.6640625
0.673828125
0.673828125
0.673828125
0.6689453125
0.6640625
0.6591796875
0.654296875
0.64453125
0.634765625
0.6298828125
0.615234375
0.6103515625
0.6005859375
0.595703125
0.576171875
0.5712890625
0.5615234375
0.5517578125
0.537109375
0.52734375
0.517578125
0.5078125
0.498046875
0.48828125
0.4833984375
0.46875
0.4638671875
0.4541015625
0.439453125
0.4345703125
0.4248046875
0.419921875
0.41015625
0.4052734375
0.400390625
0.3955078125
0.390625
0.3857421875
0.380859375
0.3759765625
0.37109375
0.3662109375
0.3662109375
0.3662109375
0.3564453125
0.3515625
0.3515625
0.3466796875
0.3466796875
0.3466796875
0.3369140625
0.341796875
0.3369140625
0.33203125
0.33203125
0.3271484375
0.33203125
0.33203125
0.3271484375
0.3271484375
0.3271484375
0.322265625
0.3271484375
0.33203125
0.341796875
0.3564453125
0.3759765625
0.400390625
0.419921875
0.439453125
0.4638671875
0.4833984375
0.5029296875
0.5126953125
0.5224609375
0.52734375
0.5322265625
0.537109375
0.537109375
0.5322265625
0.5322265625
0.5224609375
0.517578125
0.5126953125
0.5078125
0.5029296875
0.4931640625
0.4833984375
0.478515625
0.46875
0.4638671875
0.4541015625
0.4443359375
0.4345703125
0.4296875
0.419921875
0.4150390625
0.4052734375
0.400390625
0.390625
0.3857421875
0.380859375
0.3759765625
0.37109375
0.3662109375
0.3662109375
0.361328125
0.361328125
0.3564453125
0.3515625
0.3515625
0.3466796875
0.341796875
0.3369140625
0.3369140625
0.33203125
0.33203125
0.3271484375
0.3271484375
0.322265625
0.322265625
0.322265625
0.3173828125
0.3173828125
0.3173828125
0.3173828125
0.3173828125
0.3125
0.3173828125
0.3173828125
0.3173828125
0.3173828125
0.3173828125
0.322265625
0.3369140625
0.361328125
0.390625
0.4150390625
0.4443359375
0.4736328125
0.498046875
0.5224609375
0.5419921875
0.556640625
0.5712890625
0.5810546875
0.5908203125
0.595703125
0.6005859375
0.60546875
0.6005859375
0.6005859375
0.595703125
0.5908203125
0.5859375
0.576171875
0.5712890625
0.5615234375
0.556640625
0.546875
0.537109375
0.52734375
0.517578125
0.5078125
0.498046875
0.48828125
0.478515625
0.4736328125
0.46875
0.4541015625
0.4541015625
0.44921875
0.4345703125
0.4296875
0.4248046875
0.419921875
0.41015625
0.4052734375
0.400390625
0.3955078125
0.3955078125
0.390625
0.3857421875
0.3759765625
0.3759765625
0.3759765625
0.37109375
0.3662109375
0.3662109375
0.361328125
0.3564453125
0.3515625
0.3564453125
0.3466796875
0.3466796875
0.3466796875
0.341796875
0.341796875
0.341796875
0.3369140625
0.341796875
0.3369140625
0.3369140625
0.341796875
0.3466796875
0.37109375
0.3955078125
0.4248046875
0.4541015625
0.4833984375
0.5126953125
0.537109375
0.556640625
0.5810546875
0.6005859375
0.6103515625
0.6201171875
0.6298828125
0.6298828125
0.6396484375
0.634765625
0.634765625
0.6298828125
0.6201171875
0.615234375
0.6103515625
0.6005859375
0.5908203125
0.5810546875
0.576171875
0.56640625
0.556640625
0.5517578125
0.5419921875
0.52734375
0.5224609375
0.5126953125
0.5078125
0.4931640625
0.48828125
0.4736328125
0.4638671875
0.458984375
0.44921875
0.4443359375
0.4345703125
0.4296875
0.419921875
0.4150390625
0.4052734375
0.400390625
0.400390625
0.3955078125
0.390625
0.3857421875
0.380859375
0.380859375
0.3759765625
0.37109375
0.37109375
0.3662109375
0.361328125
0.361328125
0.3564453125
0.3564453125
0.3564453125
0.3515625
0.3466796875
0.3466796875
0.3466796875
0.3466796875
0.341796875
0.3466796875
0.341796875
0.341796875
0.3466796875
0.3564453125
0.380859375
0.4052734375
0.4296875
0.458984375
0.48828125
0.517578125
0.5419921875
0.5615234375
0.576171875
0.595703125
0.60546875
0.615234375
0.6201171875
0.625
0.625
0.6201171875
0.615234375
0.615234375
0.6103515625
0.6005859375
0.5908203125
0.5810546875
0.576171875
0.5615234375
0.556640625
0.546875
0.537109375
0.52734375
0.517578125
0.5078125
0.5029296875
0.4931640625
0.4833984375
0.4736328125
0.4638671875
0.458984375
0.44921875
0.439453125
0.4345703125
0.4248046875
0.419921875
0.41015625
0.41015625
0.4052734375
0.3955078125
0.390625
0.3857421875
0.380859375
0.3759765625
0.3759765625
0.3662109375
0.3662109375
0.361328125
0.361328125
0.3564453125
0.3515625
0.3515625
0.3515625
0.3466796875
0.3515625
0.3466796875
0.341796875
0.3466796875
0.341796875
0.341796875
0.3369140625
0.3369140625
0.341796875
0.3369140625
0.3369140625
0.3369140625
0.3369140625
0.3515625
0.3662109375
0.3955078125
0.4248046875
0.44921875
0.4833984375
0.5126953125
0.537109375
0.556640625
0.5810546875
0.595703125
0.6103515625
0.6201171875
0.6298828125
0.634765625
0.6396484375
0.64453125
0.6396484375
0.6396484375
0.6298828125
0.6201171875
0.615234375
0.60546875
0.6005859375
0.5908203125
0.5859375
0.576171875
0.5712890625
0.5615234375
0.5517578125
0.5419921875
0.5322265625
0.52734375
0.5126953125
0.5029296875
0.498046875
0.4833984375
0.478515625
0.46875
0.458984375
0.4541015625
0.4443359375
0.439453125
0.4296875
0.419921875
0.41015625
0.41015625
0.400390625
0.3955078125
0.3955078125
0.3857421875
0.380859375
0.3759765625
0.37109375
0.37109375
0.3662109375
0.361328125
0.3564453125
0.3564453125
0.3515625
0.3466796875
0.341796875
0.3466796875
0.3369140625
0.3369140625
0.3369140625
0.33203125
0.3271484375
0.3271484375
0.3271484375
0.3271484375
0.322265625
0.322265625
0.322265625
0.322265625
0.3369140625
0.3515625
0.3759765625
0.4052734375
0.439453125
0.46875
0.498046875
0.52734375
0.5517578125
0.5712890625
0.5908203125
0.60546875
0.615234375
0.625
0.6298828125
0.634765625
0.634765625
0.6298828125
0.6298828125
0.625
0.615234375
0.6103515625
0.60546875
0.595703125
0.5908203125
0.5810546875
0.576171875
0.5712890625
0.5615234375
0.5517578125
0.5419921875
0.537109375
0.52734375
0.517578125
0.5078125
0.5029296875
0.4931640625
0.48828125
0.4833984375
0.46875
0.4638671875
0.458984375
0.44921875
0.4443359375
0.4345703125
0.4296875
0.4248046875
0.419921875
0.4150390625
0.41015625
0.4052734375
0.4052734375
0.3955078125
0.390625
0.3857421875
0.380859375
0.380859375
0.3759765625
0.3759765625
0.37109375
0.361328125
0.361328125
0.361328125
0.3564453125
0.3564453125
0.3515625
0.3466796875
0.3466796875
0.341796875
0.341796875
0.3369140625
0.3369140625
0.3369140625
0.3369140625
0.3369140625
0.3466796875
0.361328125
0.380859375
0.41015625
0.439453125
0.46875
0.4931640625
0.517578125
0.5419921875
0.5615234375
0.576171875
0.5908203125
0.595703125
0.60546875
0.6103515625
0.615234375
0.615234375
0.615234375
0.6103515625
0.60546875
0.595703125
0.5908203125
0.5810546875
0.5712890625
0.56640625
0.556640625
0.546875
0.537109375
0.52734375
0.5224609375
0.5078125
0.498046875
0.4931640625
0.478515625
0.4736328125
0.46875
0.458984375
0.44921875
0.439453125
0.4345703125
0.4248046875
0.419921875
0.41015625
0.4052734375
0.3955078125
0.3955078125
0.3857421875
0.380859375
0.3759765625
0.37109375
0.37109375
0.37109375
0.3662109375
0.361328125
0.3564453125
0.3564453125
0.3564453125
0.3515625
0.3515625
0.3466796875
0.3466796875
0.3466796875
0.3466796875
0.341796875
0.341796875
0.3369140625
0.3369140625
0.3369140625
0.33203125
0.33203125
0.33203125
0.33203125
0.3271484375
0.3271484375
0.33203125
0.3466796875
0.37109375
0.3955078125
0.4248046875
0.4541015625
0.4833984375
0.5126953125
0.537109375
0.5517578125
0.5712890625
0.5908203125
0.6005859375
0.6103515625
0.6201171875
0.6201171875
0.625
0.6201171875
0.615234375
0.6103515625
0.60546875
0.6005859375
0.595703125
0.5859375
0.576171875
0.56640625
0.556640625
0.5517578125
0.537109375
0.52734375
0.5224609375
0.5078125
0.5029296875
0.4931640625
0.4833984375
0.478515625
0.46875
0.4638671875
0.458984375
0.44921875
0.439453125
0.4296875
0.4248046875
0.419921875
0.4150390625
0.41015625
0.4052734375
0.400390625
0.3955078125
0.390625
0.3857421875
0.3857421875
0.380859375
0.380859375
0.3759765625
0.37109375
0.37109375
0.3662109375
0.3662109375
0.361328125
0.3564453125
0.3564453125
0.3564453125
0.3515625
0.3515625
0.3466796875
0.3466796875
0.3466796875
0.3466796875
0.3466796875
0.3466796875
0.341796875
0.341796875
0.3466796875
0.3466796875
0.361328125
0.3857421875
0.400390625
0.4345703125
0.4638671875
0.4931640625
0.5126953125
0.537109375
0.556640625
0.5712890625
0.5859375
0.6005859375
0.60546875
0.615234375
0.615234375
0.615234375
0.6201171875
0.6103515625
0.6103515625
0.60546875
0.595703125
0.5908203125
0.5810546875
0.576171875
0.56640625
0.556640625
0.546875
0.537109375
0.52734375
0.517578125
0.5126953125
0.5029296875
0.498046875
0.4833984375
0.478515625
0.4736328125
0.46875
0.458984375
0.44921875
0.4443359375
0.439453125
0.4296875
0.4248046875
0.419921875
0.4150390625
0.41015625
0.4052734375
0.4052734375
0.3955078125
0.390625
0.390625
0.3857421875
0.380859375
0.380859375
0.3759765625
0.3759765625
0.37109375
0.3662109375
0.361328125
0.361328125
0.361328125
0.361328125
0.3564453125
0.3515625
0.3515625
0.3466796875
0.341796875
0.341796875
0.3369140625
0.3369140625
0.341796875
0.3369140625
0.341796875
0.3564453125
0.3759765625
0.400390625
0.4248046875
0.458984375
0.4833984375
0.5126953125
0.5322265625
0.5517578125
0.576171875
0.5859375
0.595703125
0.60546875
0.615234375
0.6201171875
0.6201171875
0.615234375
0.615234375
0.6103515625
0.60546875
0.6005859375
0.595703125
0.5859375
0.5859375
0.5712890625
0.56640625
0.5615234375
0.5517578125
0.5419921875
0.5322265625
0.517578125
0.5126953125
0.5029296875
0.4931640625
0.4833984375
0.4736328125
0.46875
0.458984375
0.458984375
0.44921875
0.439453125
0.4345703125
0.4248046875
0.4248046875
0.4150390625
0.41015625
0.4052734375
0.400390625
0.3955078125
0.390625
0.390625
0.3857421875
0.380859375
0.3759765625
0.37109375
0.3662109375
0.361328125
0.361328125
0.361328125
0.3564453125
0.3515625
0.3466796875
0.3466796875
0.341796875
0.3369140625
0.341796875
0.3369140625
0.3369140625
0.33203125
0.33203125
0.3271484375
0.33203125
0.341796875
0.361328125
0.3857421875
0.41015625
0.4443359375
0.4736328125
0.5029296875
0.5322265625
0.5517578125
0.5712890625
0.5908203125
0.595703125
0.6103515625
0.615234375
0.6201171875
0.625
0.625
0.625
0.6201171875
0.615234375
0.60546875
0.595703125
0.5908203125
0.5859375
0.5712890625
0.56640625
0.556640625
0.5419921875
0.537109375
0.52734375
0.517578125
0.5078125
0.498046875
0.48828125
0.478515625
0.4736328125
0.46875
0.458984375
0.44921875
0.4443359375
0.439453125
0.4296875
0.4248046875
0.4150390625
0.41015625
0.4052734375
0.400390625
0.3955078125
0.3857421875
0.3857421875
0.380859375
0.3759765625
0.37109375
0.3662109375
0.3662109375
0.361328125
0.361328125
0.3564453125
0.3564453125
0.3564453125
0.3515625
0.3515625
0.3515625
0.3515625
0.3515625
0.341796875
0.3466796875
0.3466796875
0.3466796875
0.3466796875
0.3515625
0.3662109375
0.390625
0.4150390625
0.4443359375
0.4736328125
0.5078125
0.5322265625
0.556640625
0.5810546875
0.6005859375
0.6201171875
0.6298828125
0.64453125
0.654296875
0.6591796875
0.6640625
0.6640625
0.6591796875
0.6591796875
0.654296875
0.6494140625
0.64453125
0.634765625
0.6298828125
0.6201171875
0.6103515625
0.60546875
0.6005859375
0.5908203125
0.5810546875
0.5712890625
0.5615234375
0.556640625
0.546875
0.537109375
0.52734375
0.517578125
0.5126953125
0.5029296875
0.4931640625
0.4833984375
0.4736328125
0.46875
0.458984375
0.44921875
0.4443359375
0.4345703125
0.4296875
0.419921875
0.4150390625
0.4052734375
0.400390625
0.3955078125
0.3857421875
0.3857421875
0.380859375
0.3759765625
0.37109375
0.3662109375
0.3662109375
0.361328125
0.361328125
0.3564453125
0.3515625
0.3466796875
0.3466796875
0.3466796875
0.3466796875
0.341796875
0.3466796875
0.3564453125
0.380859375
0.41015625
0.4345703125
0.46875
0.4931640625
0.517578125
0.546875
0.56640625
0.5859375
0.60546875
0.615234375
0.6298828125
0.634765625
0.6396484375
0.64453125
0.6396484375
0.6396484375
0.634765625
0.6298828125
0.625
0.6201171875
0.6103515625
0.6005859375
0.5908203125
0.5859375
0.576171875
0.5615234375
0.556640625
0.546875
0.537109375
0.5322265625
0.5224609375
0.5126953125
0.5029296875
0.498046875
0.4833984375
0.478515625
0.4736328125
0.4638671875
0.458984375
0.44921875
0.439453125
0.4296875
0.4248046875
0.4150390625
0.4150390625
0.400390625
0.3955078125
0.3955078125
0.3857421875
0.3857421875
0.380859375
0.37109375
0.3662109375
0.37109375
0.361328125
0.361328125
0.361328125
0.3515625
0.3466796875
0.3466796875
0.341796875
0.3369140625
0.3369140625
0.3369140625
0.33203125
0.3271484375
0.33203125
0.3271484375
0.33203125
0.3466796875
0.37109375
0.3955078125
0.4296875
0.4541015625
0.48828125
0.5126953125
0.5322265625
0.556640625
0.576171875
0.5908203125
0.60546875
0.615234375
0.625
0.6298828125
0.6298828125
0.6298828125
0.6298828125
0.625
0.615234375
0.6103515625
0.60546875
0.5908203125
0.5859375
0.576171875
0.56640625
0.556640625
0.546875
0.537109375
0.52734375
0.5224609375
0.5126953125
0.5029296875
0.4931640625
0.4833984375
0.478515625
0.46875
0.4638671875
0.4541015625
0.44921875
0.4345703125
0.4296875
0.4248046875
0.419921875
0.41015625
0.4052734375
0.400390625
0.3955078125
0.390625
0.3857421875
0.380859375
0.3759765625
0.37109375
0.3662109375
0.361328125
0.3564453125
0.3515625
0.3466796875
0.3466796875
0.341796875
0.341796875
0.3369140625
0.3369140625
0.3369140625
0.33203125
0.33203125
0.3271484375
0.3271484375
0.3271484375
0.3466796875
0.3662109375
0.3955078125
0.4296875
0.458984375
0.48828125
0.517578125
0.546875
0.56640625
0.5859375
0.6005859375
0.615234375
0.6298828125
0.6396484375
0.64453125
0.6494140625
0.6494140625
0.6494140625
0.64453125
0.64453125
0.634765625
0.6298828125
0.615234375
0.6103515625
0.6005859375
0.5908203125
0.5859375
0.576171875
0.56640625
0.556640625
0.5517578125
0.5419921875
0.5322265625
0.517578125
0.517578125
0.5078125
0.498046875
0.48828125
0.4833984375
0.4736328125
0.4638671875
0.458984375
0.4541015625
0.4443359375
0.4345703125
0.4296875
0.4248046875
0.4150390625
0.41015625
0.4052734375
0.3955078125
0.390625
0.3857421875
0.380859375
0.3759765625
0.37109375
0.3662109375
0.361328125
0.361328125
0.3564453125
0.3515625
0.3466796875
0.3466796875
0.341796875
0.3369140625
0.33203125
0.33203125
0.3271484375
0.322265625
0.322265625
0.33203125
0.341796875
0.3662109375
0.3955078125
0.4296875
0.458984375
0.48828125
0.517578125
0.537109375
0.556640625
0.5810546875
0.595703125
0.6103515625
0.625
0.6298828125
0.6396484375
0.6396484375
0.6396484375
0.6396484375
0.634765625
0.634765625
0.6298828125
0.6201171875
0.6103515625
0.60546875
0.5908203125
0.5859375
0.576171875
0.56640625
0.556640625
0.5517578125
0.5419921875
0.5322265625
0.5224609375
0.517578125
0.5126953125
0.5029296875
0.498046875
0.48828125
0.4833984375
0.4736328125
0.46875
0.4638671875
0.4541015625
0.4443359375
0.4345703125
0.4296875
0.419921875
0.41015625
0.4052734375
0.400390625
0.3955078125
0.380859375
0.380859375
0.380859375
0.37109375
0.3662109375
0.361328125
0.361328125
0.3564453125
0.3466796875
0.3466796875
0.341796875
0.3369140625
0.33203125
0.33203125
0.33203125
0.3271484375
0.3271484375
0.3369140625
0.3564453125
0.380859375
0.41015625
0.4296875
0.4638671875
0.4931640625
0.5078125
0.52734375
0.5517578125
0.56640625
0.576171875
0.5908203125
0.6005859375
0.6005859375
0.6103515625
0.60546875
0.60546875
0.6005859375
0.595703125
0.5810546875
0.5712890625
0.556640625
0.5517578125
0.5419921875
0.5322265625
0.5224609375
0.5126953125
0.5029296875
0.4931640625
0.4833984375
0.478515625
0.478515625
0.46875
0.458984375
0.4541015625
0.44921875
0.4443359375
0.439453125
0.4345703125
0.4248046875
0.419921875
0.419921875
0.41015625
0.4052734375
0.400390625
0.3955078125
0.390625
0.390625
0.3857421875
0.380859375
0.3759765625
0.37109375
0.3662109375
0.3662109375
0.3564453125
0.3564453125
0.3515625
0.341796875
0.3466796875
0.341796875
0.3369140625
0.33203125
0.33203125
0.33203125
0.341796875
0.361328125
0.3857421875
0.4150390625
0.44921875
0.4736328125
0.5029296875
0.5322265625
0.5517578125
0.576171875
0.595703125
0.615234375
0.6298828125
0.64453125
0.654296875
0.6640625
0.673828125
0.673828125
0.6787109375
0.673828125
0.673828125
0.6689453125
0.6640625
0.654296875
0.64453125
0.6396484375
0.6298828125
0.6201171875
0.615234375
0.6103515625
0.6005859375
0.5908203125
0.5810546875
0.576171875
0.56640625
0.5615234375
0.546875
0.5419921875
0.5322265625
0.5224609375
0.5126953125
0.5029296875
0.498046875
0.4931640625
0.4833984375
0.46875
0.4638671875
0.458984375
0.4541015625
0.4443359375
0.4345703125
0.4296875
0.419921875
0.4150390625
0.4052734375
0.400390625
0.390625
0.3857421875
0.3759765625
0.3662109375
0.3662109375
0.3564453125
0.3466796875
0.341796875
0.3369140625
0.33203125
0.3271484375
0.322265625
0.322265625
0.3173828125
0.322265625
0.3369140625
0.3564453125
0.3857421875
0.419921875
0.44921875
0.478515625
0.5029296875
0.52734375
0.5517578125
0.5712890625
0.5908203125
0.60546875
0.6201171875
0.634765625
0.64453125
0.6494140625
0.654296875
0.6591796875
0.6591796875
0.654296875
0.6494140625
0.64453125
0.634765625
0.6298828125
0.615234375
0.60546875
0.595703125
0.5859375
0.576171875
0.5712890625
0.556640625
0.546875
0.537109375
0.5322265625
0.52734375
0.517578125
0.5078125
0.498046875
0.4931640625
0.4833984375
0.4736328125
0.4638671875
0.4541015625
0.4443359375
0.4345703125
0.4296875
0.4150390625
0.4052734375
0.400390625
0.390625
0.380859375
0.3759765625
0.3662109375
0.3564453125
0.3515625
0.3466796875
0.341796875
0.3369140625
0.33203125
0.3271484375
0.322265625
0.3173828125
0.3125
0.3076171875
0.3076171875
0.302734375
0.2978515625
0.29296875
0.29296875
0.29296875
0.2880859375
0.2880859375
0.283203125
0.283203125
0.283203125
0.283203125
0.283203125
0.283203125
0.283203125
0.2880859375
0.302734375
0.3271484375
0.361328125
0.3857421875
0.4150390625
0.44921875
0.4736328125
0.5029296875
0.517578125
0.537109375
0.5517578125
0.56640625
0.576171875
0.5859375
0.5859375
0.595703125
0.595703125
0.595703125
0.595703125
0.5908203125
0.5810546875
0.576171875
0.5712890625
0.5615234375
0.5517578125
0.546875
0.537109375
0.52734375
0.517578125
0.5126953125
0.5078125
0.498046875
0.48828125
0.4833984375
0.478515625
0.46875
0.458984375
0.4541015625
0.44921875
0.439453125
0.4345703125
0.4296875
0.419921875
0.4150390625
0.4052734375
0.400390625
0.400390625
0.3857421875
0.380859375
0.3759765625
0.37109375
0.3662109375
0.3564453125
0.3564453125
0.3466796875
0.3466796875
0.3466796875
0.341796875
0.3369140625
0.3369140625
0.33203125
0.3271484375
0.322265625
0.3271484375
0.3271484375
0.322265625
0.322265625
0.3173828125
0.3173828125
0.322265625
0.3173828125
0.3173828125
0.3173828125
0.3173828125
0.3173828125
0.3125
0.3173828125
0.3173828125
0.3076171875
0.3173828125
0.322265625
0.3369140625
0.361328125
0.3857421875
0.4052734375
0.4296875
0.4541015625
0.4736328125
0.48828125
0.5029296875
0.517578125
0.52734375
0.5322265625
0.546875
0.5419921875
0.546875
0.5517578125
0.5517578125
0.546875
0.5419921875
0.537109375
0.52734375
0.5224609375
0.5126953125
0.5126953125
0.498046875
0.48828125
0.4833984375
0.4736328125
0.4736328125
0.4638671875
0.458984375
0.4541015625
0.4443359375
0.439453125
0.4345703125
0.4296875
0.4248046875
0.419921875
0.4150390625
0.4052734375
0.400390625
0.400390625
0.3955078125
0.3857421875
0.3857421875
0.380859375
0.380859375
0.37109375
0.37109375
0.3662109375
0.3662109375
0.3662109375
0.3662109375
0.361328125
0.361328125
0.361328125
0.3564453125
0.361328125
0.3564453125
0.361328125
0.361328125
0.3564453125
0.361328125
0.361328125
0.361328125
0.361328125
0.3662109375
0.3662109375
0.37109375
0.3662109375
0.3662109375
0.3662109375
0.3662109375
0.3662109375
0.3662109375
0.361328125
0.3662109375
0.3662109375
0.361328125
0.3662109375
0.361328125
0.361328125
0.3662109375
0.380859375
0.3955078125
0.4150390625
0.4345703125
0.4541015625
0.4736328125
0.48828125
0.5029296875
0.5126953125
0.5224609375
0.5322265625
0.537109375
0.5419921875
0.537109375
0.5419921875
0.537109375
0.537109375
0.5322265625
0.52734375
0.5224609375
0.517578125
0.5078125
0.5029296875
0.498046875
0.48828125
0.4833984375
0.478515625
0.4736328125
0.4736328125
0.4638671875
0.4638671875
0.4541015625
0.44921875
0.44921875
0.4443359375
0.439453125
0.439453125
0.4345703125
0.4296875
0.4248046875
0.4150390625
0.4150390625
0.41015625
0.4052734375
0.4052734375
0.3955078125
0.3955078125
0.390625
0.3857421875
0.380859375
0.3759765625
0.3759765625
0.3662109375
0.3662109375
0.361328125
0.361328125
0.3564453125
0.361328125
0.3564453125
0.3564453125
0.3564453125
0.3515625
0.3466796875
0.3466796875
0.3466796875
0.3466796875
0.3466796875
0.3466796875
0.3466796875
0.341796875
0.341796875
0.3466796875
0.341796875
0.3466796875
0.3466796875
0.3466796875
0.3564453125
0.37109375
0.3955078125
0.4150390625
0.4345703125
0.44921875
0.46875
0.478515625
0.4931640625
0.498046875
0.5126953125
0.517578125
0.517578125
0.52734375
0.52734375
0.52734375
0.52734375
0.5224609375
0.5224609375
0.517578125
0.5126953125
0.5078125
0.5029296875
0.498046875
0.48828125
0.478515625
0.4736328125
0.4638671875
0.458984375
0.4541015625
0.44921875
0.4443359375
0.44921875
0.439453125
0.4345703125
0.4296875
0.4248046875
0.4248046875
0.419921875
0.4150390625
0.4052734375
0.4052734375
0.4052734375
0.400390625
0.3955078125
0.390625
0.3857421875
0.380859375
0.380859375
0.3759765625
0.3759765625
0.37109375
0.3662109375
0.3662109375
0.361328125
0.361328125
0.361328125
0.3564453125
0.3564453125
0.361328125
0.3564453125
0.3564453125
0.3564453125
0.361328125
0.361328125
0.3564453125
0.361328125
0.3662109375
0.361328125
0.361328125
0.361328125
0.361328125
0.361328125
0.3564453125
0.3564453125
0.3564453125
0.3515625
0.3564453125
0.3564453125
0.37109375
0.390625
0.4052734375
0.4296875
0.44921875
0.4638671875
0.48828125
0.498046875
0.5126953125
0.5224609375
0.52734375
0.537109375
0.537109375
0.5419921875
0.546875
0.5419921875
0.5419921875
0.5419921875
0.537109375
0.5322265625
0.5224609375
0.517578125
0.5126953125
0.5029296875
0.498046875
0.48828125
0.4833984375
0.478515625
0.4736328125
0.4638671875
0.458984375
0.4541015625
0.44921875
0.4443359375
0.439453125
0.4296875
0.4248046875
0.419921875
0.4150390625
0.4052734375
0.400390625
0.400390625
0.3955078125
0.390625
0.3857421875
0.380859375
0.3857421875
0.380859375
0.380859375
0.380859375
0.380859375
0.380859375
0.3857421875
0.380859375
0.380859375
0.380859375
0.380859375
0.3857421875
0.3857421875
0.390625
0.390625
0.3857421875
0.3857421875
0.3857421875
0.380859375
0.3857421875
0.380859375
0.3857421875
0.3857421875
0.3759765625
0.3759765625
0.3759765625
0.380859375
0.3759765625
0.3759765625
0.3759765625
0.3759765625
0.3759765625
0.380859375
0.390625
0.4052734375
0.4248046875
0.4443359375
0.4638671875
0.4736328125
0.4931640625
0.5029296875
0.5078125
0.5126953125
0.5224609375
0.5224609375
0.52734375
0.52734375
0.5224609375
0.5224609375
0.517578125
0.5126953125
0.5029296875
0.4931640625
0.48828125
0.4833984375
0.4736328125
0.46875
0.458984375
0.4541015625
0.4443359375
0.439453125
0.4345703125
0.4345703125
0.4296875
0.4296875
0.4248046875
0.419921875
0.419921875
0.419921875
0.419921875
0.4150390625
0.4150390625
0.4150390625
0.41015625
0.41015625
0.4052734375
0.400390625
0.4052734375
0.400390625
0.3955078125
0.3955078125
0.390625
0.390625
0.3857421875
0.3857421875
0.3857421875
0.380859375
0.380859375
0.3857421875
0.380859375
0.3857421875
0.3857421875
0.380859375
0.390625
0.3857421875
0.3857421875
0.3857421875
0.3857421875
0.390625
0.3857421875
0.3857421875
0.390625
0.390625
0.3955078125
0.3955078125
0.390625
0.390625
0.390625
0.3857421875
0.390625
0.400390625
0.41015625
0.4296875
0.4443359375
0.458984375
0.46875
0.4833984375
0.498046875
0.5029296875
0.5126953125
0.517578125
0.5224609375
0.52734375
0.52734375
0.5322265625
0.5322265625
0.52734375
0.5224609375
0.517578125
0.5078125
0.5029296875
0.4931640625
0.4833984375
0.478515625
0.46875
0.458984375
0.4541015625
0.44921875
0.439453125
0.4345703125
0.4296875
0.4248046875
0.4248046875
0.419921875
0.4150390625
0.4150390625
0.41015625
0.41015625
0.4052734375
0.4052734375
0.4052734375
0.400390625
0.4052734375
0.400390625
0.4052734375
0.4052734375
0.400390625
0.400390625
0.400390625
0.4052734375
0.41015625
0.41015625
0.41015625
0.41015625
0.4150390625
0.419921875
0.419921875
0.4248046875
0.4248046875
0.419921875
0.4248046875
0.4296875
0.4296875
0.4296875
0.4296875
0.4345703125
0.4345703125
0.4296875
0.4345703125
0.4296875
0.4296875
0.4345703125
0.4296875
0.4296875
0.4296875
0.4248046875
0.4296875
0.4296875
0.4296875
0.439453125
0.44921875
0.458984375
0.4736328125
0.4833984375
0.4931640625
0.498046875
0.5029296875
0.5078125
0.5126953125
0.5078125
0.5126953125
0.5078125
0.5029296875
0.5029296875
0.4931640625
0.48828125
0.4833984375
0.4833984375
0.478515625
0.4736328125
0.46875
0.4638671875
0.4638671875
0.458984375
0.4541015625
0.4541015625
0.44921875
0.44921875
0.44921875
0.4443359375
0.439453125
0.4443359375
0.439453125
0.4345703125
0.4345703125
0.4296875
0.4345703125
0.4345703125
0.4296875
0.4345703125
0.4296875
0.4296875
0.4296875
0.4248046875
0.4296875
0.4296875
0.4248046875
0.4248046875
0.4248046875
0.419921875
0.419921875
0.419921875
0.419921875
0.4150390625
0.4150390625
0.4150390625
0.4150390625
0.4150390625
0.4150390625
0.41015625
0.41015625
0.41015625
0.41015625
0.41015625
0.4052734375
0.4052734375
0.4052734375
0.4052734375
0.4052734375
0.41015625
0.419921875
0.4345703125
0.44921875
0.458984375
0.4736328125
0.48828125
0.498046875
0.5029296875
0.5126953125
0.517578125
0.5224609375
0.5224609375
0.5224609375
0.5224609375
0.517578125
0.5126953125
0.5078125
0.5078125
0.4931640625
0.48828125
0.4833984375
0.4736328125
0.46875
0.4638671875
0.4541015625
0.44921875
0.4443359375
0.439453125
0.4345703125
0.4296875
0.4248046875
0.4248046875
0.4150390625
0.4150390625
0.4150390625
0.41015625
0.41015625
0.4052734375
0.400390625
0.400390625
0.3955078125
0.3955078125
0.3955078125
0.3955078125
0.3955078125
0.3955078125
0.3955078125
0.3955078125
0.390625
0.390625
0.3857421875
0.390625
0.3857421875
0.3857421875
0.390625
0.390625
0.390625
0.390625
0.3955078125
0.390625
0.3955078125
0.3955078125
0.400390625
0.400390625
0.400390625
0.400390625
0.3955078125
0.400390625
0.400390625
0.3955078125
0.400390625
0.400390625
0.4150390625
0.4296875
0.4443359375
0.458984375
0.4833984375
0.498046875
0.5126953125
0.52734375
0.537109375
0.546875
0.5517578125
0.556640625
0.5615234375
0.5615234375
0.56640625
0.5615234375
0.556640625
0.5517578125
0.546875
0.537109375
0.5322265625
0.5224609375
0.517578125
0.5126953125
0.498046875
0.4931640625
0.4833984375
0.478515625
0.4736328125
0.46875
0.4638671875
0.458984375
0.4541015625
0.4541015625
0.4541015625
0.44921875
0.44921875
0.4443359375
0.4443359375
0.439453125
0.439453125
0.439453125
0.4345703125
0.4345703125
0.4296875
0.4296875
0.4296875
0.4248046875
0.4296875
0.4248046875
0.4248046875
0.419921875
0.4150390625
0.4150390625
0.4150390625
0.41015625
0.41015625
0.41015625
0.41015625
0.41015625
0.41015625
0.4052734375
0.41015625
0.41015625
0.4052734375
0.41015625
0.4052734375
0.4052734375
0.4052734375
0.4052734375
0.4052734375
0.4052734375
0.400390625
0.4052734375
0.400390625
0.41015625
0.4248046875
0.439453125
0.458984375
0.4833984375
0.4931640625
0.5126953125
0.52734375
0.537109375
0.546875
0.5517578125
0.5615234375
0.56640625
0.56640625
0.56640625
0.5615234375
0.5615234375
0.556640625
0.5517578125
0.546875
0.537109375
0.52734375
0.5224609375
0.5126953125
0.5078125
0.5029296875
0.4931640625
0.48828125
0.478515625
0.478515625
0.4736328125
0.4638671875
0.4638671875
0.458984375
0.4541015625
0.4541015625
0.4541015625
0.44921875
0.44921875
0.4443359375
0.439453125
0.4345703125
0.4296875
0.4296875
0.4248046875
0.4296875
0.419921875
0.4150390625
0.4150390625
0.41015625
0.4052734375
0.400390625
0.4052734375
0.4052734375
0.4052734375
0.4052734375
0.4052734375
0.4052734375
0.400390625
0.400390625
0.4052734375
0.400390625
0.4052734375
0.4052734375
0.4052734375
0.4052734375
0.400390625
0.400390625
0.400390625
0.400390625
0.400390625
0.3955078125
0.390625
0.400390625
0.4052734375
0.419921875
0.4443359375
0.458984375
0.478515625
0.5029296875
0.517578125
0.5322265625
0.5419921875
0.556640625
0.56640625
0.5712890625
0.576171875
0.5810546875
0.5810546875
0.5810546875
0.5810546875
0.5712890625
0.56640625
0.5615234375
0.556640625
0.546875
0.5419921875
0.5322265625
0.52734375
0.517578125
0.5126953125
0.5078125
0.498046875
0.4931640625
0.4833984375
0.4833984375
0.4736328125
0.4736328125
0.4638671875
0.458984375
0.4541015625
0.44921875
0.4443359375
0.4443359375
0.4345703125
0.4296875
0.4248046875
0.419921875
0.419921875
0.419921875
0.419921875
0.4150390625
0.4150390625
0.4150390625
0.41015625
0.4052734375
0.41015625
0.4150390625
0.41015625
0.4150390625
0.41015625
0.4150390625
0.419921875
0.4150390625
0.419921875
0.4150390625
0.4150390625
0.4150390625
0.4150390625
0.41015625
0.41015625
0.4052734375
0.4052734375
0.4052734375
0.400390625
0.400390625
0.400390625
0.41015625
0.419921875
0.4345703125
0.458984375
0.478515625
0.498046875
0.517578125
0.5322265625
0.546875
0.556640625
0.5712890625
0.5810546875
0.5859375
0.5859375
0.5908203125
0.5859375
0.5908203125
0.5859375
0.5810546875
0.576171875
0.5712890625
0.5615234375
0.556640625
0.5517578125
0.5419921875
0.5322265625
0.52734375
0.517578125
0.5126953125
0.5078125
0.498046875
0.4931640625
0.48828125
0.4833984375
0.478515625
0.4736328125
0.4736328125
0.46875
0.4638671875
0.458984375
0.4541015625
0.44921875
0.44921875
0.4443359375
0.439453125
0.4345703125
0.4345703125
0.4296875
0.4248046875
0.4248046875
0.419921875
0.4150390625
0.419921875
0.4150390625
0.4150390625
0.41015625
0.41015625
0.41015625
0.4052734375
0.4052734375
0.4052734375
0.400390625
0.400390625
0.400390625
0.3955078125
0.3955078125
0.3955078125
0.3955078125
0.3955078125
0.3955078125
0.3955078125
0.3955078125
0.3955078125
0.3955078125
0.400390625
0.400390625
0.4150390625
0.4296875
0.44921875
0.46875
0.48828125
0.5078125
0.52734375
0.5419921875
0.5517578125
0.56640625
0.5712890625
0.576171875
0.5810546875
0.5810546875
0.5859375
0.5810546875
0.576171875
0.5712890625
0.5615234375
0.5615234375
0.5517578125
0.546875
0.537109375
0.5322265625
0.52734375
0.517578125
0.5126953125
0.5078125
0.498046875
0.498046875
0.4931640625
0.48828125
0.4833984375
0.478515625
0.4736328125
0.4736328125
0.46875
0.46875
0.4638671875
0.4638671875
0.4541015625
0.4541015625
0.4541015625
0.44921875
0.44921875
0.439453125
0.439453125
0.4345703125
0.4296875
0.4248046875
0.4248046875
0.4150390625
0.4150390625
0.41015625
0.400390625
0.3955078125
0.3955078125
0.390625
0.390625
0.3857421875
0.380859375
0.380859375
0.3759765625
0.3759765625
0.37109375
0.37109375
0.3759765625
0.3759765625
0.3759765625
0.3759765625
0.3759765625
0.3759765625
0.380859375
0.3955078125
0.41015625
0.4296875
0.4541015625
0.4736328125
0.498046875
0.517578125
0.5322265625
0.546875
0.5615234375
0.5712890625
0.5810546875
0.5859375
0.5908203125
0.5908203125
0.5908203125
0.5859375
0.5859375
0.5810546875
0.5712890625
0.56640625
0.556640625
0.5517578125
0.546875
0.537109375
0.5322265625
0.5224609375
0.517578125
0.5126953125
0.5029296875
0.498046875
0.48828125
0.4833984375
0.4833984375
0.478515625
0.4736328125
0.46875
0.458984375
0.458984375
0.44921875
0.44921875
0.4443359375
0.439453125
0.439453125
0.4345703125
0.4296875
0.4296875
0.4248046875
0.419921875
0.419921875
0.4150390625
0.4150390625
0.41015625
0.4052734375
0.4052734375
0.400390625
0.400390625
0.400390625
0.3955078125
0.3955078125
0.3955078125
0.3955078125
0.390625
0.390625
0.390625
0.390625
0.390625
0.390625
0.390625
0.390625
0.390625
0.3955078125
0.3955078125
0.3955078125
0.4052734375
0.419921875
0.4443359375
0.4638671875
0.48828125
0.5078125
0.52734375
0.5419921875
0.556640625
0.5712890625
0.5810546875
0.5859375
0.595703125
0.595703125
0.595703125
0.6005859375
0.595703125
0.595703125
0.5908203125
0.5859375
0.5810546875
0.576171875
0.5712890625
0.56640625
0.5615234375
0.556640625
0.546875
0.5419921875
0.537109375
0.5322265625
0.52734375
0.5224609375
0.5126953125
0.5078125
0.5029296875
0.4931640625
0.48828125
0.4833984375
0.478515625
0.4736328125
0.46875
0.4638671875
0.458984375
0.4541015625
0.44921875
0.4443359375
0.4443359375
0.439453125
0.4345703125
0.4296875
0.4248046875
0.419921875
0.4150390625
0.41015625
0.41015625
0.4052734375
0.400390625
0.400390625
0.3955078125
0.3955078125
0.390625
0.3857421875
0.380859375
0.380859375
0.3759765625
0.380859375
0.3759765625
0.3759765625
0.37109375
0.37109375
0.37109375
0.3759765625
0.3857421875
0.400390625
0.4248046875
0.44921875
0.4736328125
0.4931640625
0.5126953125
0.5322265625
0.546875
0.5615234375
0.576171875
0.5908203125
0.6005859375
0.60546875
0.615234375
0.6201171875
0.6298828125
0.6298828125
0.6298828125
0.6298828125
0.625
0.6201171875
0.6103515625
0.60546875
0.595703125
0.5908203125
0.5810546875
0.576171875
0.576171875
0.56640625
0.5615234375
0.5615234375
0.5517578125
0.5517578125
0.5419921875
0.537109375
0.5322265625
0.52734375
0.5224609375
0.517578125
0.5078125
0.498046875
0.4931640625
0.4833984375
0.478515625
0.4736328125
0.46875
0.4638671875
0.4541015625
0.44921875
0.4443359375
0.439453125
0.4345703125
0.4296875
0.4296875
0.419921875
0.4150390625
0.4150390625
0.4052734375
0.4052734375
0.400390625
0.3955078125
0.390625
0.3857421875
0.3857421875
0.380859375
0.3759765625
0.3759765625
0.3759765625
0.37109375
0.380859375
0.3955078125
0.419921875
0.4345703125
0.458984375
0.4833984375
0.5078125
0.5224609375
0.546875
0.5615234375
0.576171875
0.595703125
0.60546875
0.615234375
0.625
0.6298828125
0.634765625
0.634765625
0.634765625
0.634765625
0.634765625
0.6298828125
0.6298828125
0.625
0.6201171875
0.6103515625
0.6005859375
0.5908203125
0.5859375
0.576171875
0.5712890625
0.56640625
0.556640625
0.5517578125
0.5419921875
0.5419921875
0.52734375
0.5224609375
0.517578125
0.5078125
0.5029296875
0.4931640625
0.48828125
0.4833984375
0.4736328125
0.4736328125
0.46875
0.458984375
0.4541015625
0.44921875
0.439453125
0.439453125
0.4296875
0.4248046875
0.419921875
0.4150390625
0.41015625
0.4052734375
0.3955078125
0.3955078125
0.3857421875
0.3857421875
0.380859375
0.3759765625
0.3662109375
0.3662109375
0.3564453125
0.3515625
0.3466796875
0.3466796875
0.341796875
0.3466796875
0.3564453125
0.3759765625
0.400390625
0.419921875
0.44921875
0.4736328125
0.4931640625
0.517578125
0.537109375
0.5517578125
0.56640625
0.576171875
0.5859375
0.5908203125
0.5908203125
0.595703125
0.595703125
0.595703125
0.5859375
0.5859375
0.576171875
0.56640625
0.5615234375
0.5517578125
0.5419921875
0.5322265625
0.517578125
0.5126953125
0.5029296875
0.4931640625
0.48828125
0.4833984375
0.4736328125
0.4736328125
0.4638671875
0.458984375
0.4541015625
0.44921875
0.4443359375
0.4345703125
0.4296875
0.4248046875
0.4150390625
0.41015625
0.4052734375
0.400390625
0.3955078125
0.3857421875
0.380859375
0.3759765625
0.3662109375
0.3662109375
0.361328125
0.361328125
0.3564453125
0.3515625
0.3515625
0.3515625
0.3515625
0.3515625
0.3564453125
0.3564453125
0.3564453125
0.361328125
0.3564453125
0.361328125
0.361328125
0.3662109375
0.3662109375
0.37109375
0.37109375
0.37109375
0.3662109375
0.37109375
0.37109375
0.380859375
0.3955078125
0.41015625
0.4345703125
0.4541015625
0.4736328125
0.4931640625
0.5078125
0.5224609375
0.52734375
0.537109375
0.546875
0.546875
0.5517578125
0.5517578125
0.546875
0.546875
0.5419921875
0.5322265625
0.537109375
0.52734375
0.52734375
0.5224609375
0.517578125
0.5126953125
0.5078125
0.5029296875
0.498046875
0.4931640625
0.48828125
0.4833984375
0.4736328125
0.4736328125
0.46875
0.4638671875
0.458984375
0.4541015625
0.44921875
0.4443359375
0.4345703125
0.4345703125
0.4248046875
0.419921875
0.419921875
0.41015625
0.41015625
0.400390625
0.400390625
0.3955078125
0.390625
0.3857421875
0.3857421875
0.380859375
0.380859375
0.3759765625
0.3759765625
0.37109375
0.37109375
0.37109375
0.37109375
0.37109375
0.37109375
0.3662109375
0.3662109375
0.3662109375
0.37109375
0.3759765625
0.3955078125
0.4150390625
0.439453125
0.46875
0.4931640625
0.517578125
0.5322265625
0.5517578125
0.5712890625
0.5859375
0.595703125
0.6005859375
0.6103515625
0.6103515625
0.615234375
0.6103515625
0.615234375
0.60546875
0.60546875
0.595703125
0.5859375
0.5810546875
0.5712890625
0.56640625
0.556640625
0.546875
0.546875
0.537109375
0.5322265625
0.5224609375
0.517578125
0.517578125
0.5126953125
0.5029296875
0.498046875
0.4931640625
0.4833984375
0.478515625
0.4736328125
0.46875
0.458984375
0.44921875
0.4443359375
0.4345703125
0.4296875
0.419921875
0.4150390625
0.4052734375
0.400390625
0.3955078125
0.3857421875
0.380859375
0.3759765625
0.37109375
0.3662109375
0.361328125
0.361328125
0.3564453125
0.3564453125
0.3564453125
0.3564453125
0.361328125
0.3662109375
0.361328125
0.3662109375
0.37109375
0.380859375
0.3955078125
0.41015625
0.4248046875
0.4443359375
0.4736328125
0.498046875
0.517578125
0.5419921875
0.56640625
0.5810546875
0.6005859375
0.615234375
0.6298828125
0.6396484375
0.64453125
0.654296875
0.6591796875
0.6591796875
0.6640625
0.6640625
0.654296875
0.6494140625
0.64453125
0.634765625
0.625
0.6103515625
0.60546875
0.5908203125
0.5859375
0.5712890625
0.5615234375
0.5517578125
0.5419921875
0.537109375
0.52734375
0.517578125
0.5078125
0.498046875
0.4931640625
0.4833984375
0.4736328125
0.4638671875
0.458984375
0.4541015625
0.44921875
0.4443359375
0.4345703125
0.4296875
0.419921875
0.4150390625
0.41015625
0.4052734375
0.400390625
0.390625
0.3857421875
0.380859375
0.380859375
0.3759765625
0.3759765625
0.3759765625
0.37109375
0.37109375
0.3662109375
0.3662109375
0.3662109375
0.361328125
0.361328125
0.361328125
0.361328125
0.361328125
0.3564453125
0.3564453125
0.3564453125
0.3515625
0.3515625
0.361328125
0.37109375
0.390625
0.4150390625
0.4345703125
0.458984375
0.478515625
0.5029296875
0.5224609375
0.5322265625
0.546875
0.5615234375
0.5712890625
0.576171875
0.5810546875
0.5859375
0.5810546875
0.5859375
0.5810546875
0.576171875
0.5712890625
0.56640625
0.556640625
0.5517578125
0.5419921875
0.537109375
0.52734375
0.5224609375
0.517578125
0.5126953125
0.5078125
0.498046875
0.48828125
0.4833984375
0.478515625
0.46875
0.4638671875
0.4541015625
0.44921875
0.4443359375
0.4345703125
0.4345703125
0.4248046875
0.419921875
0.4150390625
0.41015625
0.4052734375
0.400390625
0.3955078125
0.390625
0.3857421875
0.380859375
0.3759765625
0.37109375
0.3662109375
0.3662109375
0.3662109375
0.361328125
0.361328125
0.3515625
0.3515625
0.3515625
0.3466796875
0.3466796875
0.3466796875
0.341796875
0.3466796875
0.341796875
0.341796875
0.3466796875
0.3564453125
0.3759765625
0.3955078125
0.419921875
0.44921875
0.4736328125
0.5029296875
0.5224609375
0.5419921875
0.556640625
0.5712890625
0.5810546875
0.5908203125
0.595703125
0.6005859375
0.6005859375
0.6005859375
0.60546875
0.595703125
0.5908203125
0.5810546875
0.576171875
0.5712890625
0.5615234375
0.5517578125
0.546875
0.5419921875
