1.220703125
1.1669921875
1.1083984375
1.0546875
1.025390625
0.9765625
0.947265625
0.9326171875
0.8837890625
0.869140625
0.8544921875
0.8203125
0.8203125
0.80078125
0.78125
0.78125
0.7666015625
0.76171875
0.7666015625
0.7470703125
0.751953125
0.7568359375
0.751953125
0.8056640625
0.888671875
0.966796875
1.0791015625
1.19140625
1.2841796875
1.3818359375
1.455078125
1.5380859375
1.611328125
1.6552734375
1.708984375
1.7578125
1.77734375
1.796875
1.806640625
1.806640625
1.8310546875
1.8359375
1.8310546875
1.8408203125
1.8115234375
1.796875
1.7919921875
1.7578125
1.7236328125
1.6943359375
1.6552734375
1.640625
1.6162109375
1.5869140625
1.5673828125
1.5380859375
1.5234375
1.5234375
1.4892578125
1.484375
1.474609375
1.4501953125
1.4404296875
1.42578125
1.4111328125
1.40625
1.3818359375
1.3671875
1.357421875
1.328125
1.3134765625
1.30859375
1.26953125
1.2548828125
1.2353515625
1.201171875
1.171875
1.1474609375
1.1279296875
1.1181640625
1.0888671875
1.064453125
1.064453125
1.0302734375
1.0205078125
1.0205078125
0.986328125
0.9814453125
0.9716796875
0.947265625
0.947265625
0.9375
0.91796875
0.927734375
0.9033203125
0.9033203125
0.9130859375
0.8837890625
0.8837890625
0.8837890625
0.869140625
0.8642578125
0.859375
0.8740234375
0.9130859375
0.966796875
1.0498046875
1.1669921875
1.2548828125
1.3671875
1.46484375
1.54296875
1.6259765625
1.6943359375
1.7431640625
1.8017578125
1.8359375
1.8701171875
1.904296875
1.9091796875
1.923828125
1.943359375
1.923828125
1.9287109375
1.923828125
1.8994140625
1.884765625
1.8505859375
1.826171875
1.787109375
1.748046875
1.7236328125
1.7041015625
1.6552734375
1.62109375
1.6015625
1.5673828125
1.533203125
1.50390625
1.4794921875
1.4697265625
1.4599609375
1.4453125
1.4501953125
1.42578125
1.4208984375
1.42578125
1.38671875
1.38671875
1.3720703125
1.3427734375
1.337890625
1.30859375
1.2841796875
1.259765625
1.2255859375
1.2060546875
1.201171875
1.1572265625
1.1376953125
1.1279296875
1.09375
1.0791015625
1.0595703125
1.025390625
1.025390625
0.99609375
0.9765625
0.9765625
0.9423828125
0.9375
0.9375
0.9033203125
0.908203125
0.908203125
0.8837890625
0.8837890625
0.8837890625
0.869140625
0.87890625
0.8544921875
0.849609375
0.83984375
0.8349609375
0.849609375
0.8935546875
0.9521484375
1.0546875
1.1669921875
1.2646484375
1.3671875
1.455078125
1.54296875
1.630859375
1.689453125
1.7431640625
1.8017578125
1.8212890625
1.8359375
1.865234375
1.875
1.89453125
1.8994140625
1.89453125
1.904296875
1.8798828125
1.8701171875
1.8603515625
1.8212890625
1.8017578125
1.77734375
1.7333984375
1.708984375
1.6796875
1.6357421875
1.6162109375
1.5869140625
1.5673828125
1.552734375
1.513671875
1.5087890625
1.50390625
1.4697265625
1.46484375
1.4599609375
1.4306640625
1.42578125
1.4111328125
1.38671875
1.3818359375
1.3525390625
1.337890625
1.328125
1.2939453125
1.2744140625
1.2451171875
1.2109375
1.181640625
1.162109375
1.1279296875
1.0986328125
1.07421875
1.044921875
1.044921875
1.0205078125
1.005859375
1.0107421875
0.9765625
0.9765625
0.9716796875
0.9423828125
0.9423828125
0.9326171875
0.9130859375
0.91796875
0.8984375
0.888671875
0.8984375
0.869140625
0.87890625
0.87890625
0.859375
0.869140625
0.87890625
0.8984375
0.966796875
1.0546875
1.142578125
1.259765625
1.3427734375
1.4453125
1.54296875
1.6064453125
1.6796875
1.7431640625
1.7822265625
1.826171875
1.85546875
1.875
1.904296875
1.904296875
1.9140625
1.9287109375
1.904296875
1.9091796875
1.8994140625
1.8701171875
1.8505859375
1.81640625
1.77734375
1.7529296875
1.7236328125
1.6845703125
1.6650390625
1.6259765625
1.6015625
1.591796875
1.552734375
1.5380859375
1.5283203125
1.494140625
1.4892578125
1.474609375
1.455078125
1.4501953125
1.42578125
1.416015625
1.4111328125
1.3720703125
1.357421875
1.34765625
1.3134765625
1.298828125
1.2744140625
1.2451171875
1.2255859375
1.19140625
1.162109375
1.15234375
1.11328125
1.09375
1.083984375
1.0400390625
1.0302734375
1.0205078125
0.986328125
0.9814453125
0.966796875
0.947265625
0.9423828125
0.927734375
0.9130859375
0.9228515625
0.8837890625
0.888671875
0.888671875
0.8642578125
0.859375
0.8544921875
0.8349609375
0.8251953125
0.8154296875
0.810546875
0.83984375
0.869140625
0.9521484375
1.0546875
1.1572265625
1.2646484375
1.376953125
1.46484375
1.5576171875
1.630859375
1.6943359375
1.7626953125
1.8017578125
1.8408203125
1.884765625
1.8896484375
1.9140625
1.93359375
1.923828125
1.9287109375
1.923828125
1.9091796875
1.89453125
1.8603515625
1.8359375
1.8115234375
1.7724609375
1.7431640625
1.71875
1.6748046875
1.650390625
1.630859375
1.5966796875
1.58203125
1.5625
1.5380859375
1.5283203125
1.50390625
1.4892578125
1.4892578125
1.4501953125
1.4453125
1.4404296875
1.40625
1.396484375
1.3818359375
1.3525390625
1.3427734375
1.3134765625
1.2841796875
1.259765625
1.23046875
1.201171875
1.1767578125
1.142578125
1.123046875
1.11328125
1.07421875
1.0595703125
1.044921875
1.015625
1.0107421875
0.9814453125
0.9619140625
0.966796875
0.9326171875
0.927734375
0.927734375
0.8935546875
0.8935546875
0.8740234375
0.8642578125
0.8642578125
0.8544921875
0.849609375
0.849609375
0.830078125
0.8349609375
0.83984375
0.830078125
0.859375
0.908203125
0.966796875
1.083984375
1.1962890625
1.2939453125
1.4013671875
1.4892578125
1.572265625
1.6552734375
1.69921875
1.767578125
1.8212890625
1.845703125
1.865234375
1.884765625
1.8994140625
1.8994140625
1.904296875
1.9091796875
1.9140625
1.8896484375
1.875
1.85546875
1.8212890625
1.7919921875
1.767578125
1.728515625
1.7041015625
1.6796875
1.640625
1.6259765625
1.5869140625
1.5673828125
1.552734375
1.5185546875
1.4892578125
1.46484375
1.4404296875
1.416015625
1.396484375
1.376953125
1.3525390625
1.3330078125
1.3134765625
1.2939453125
1.26953125
1.2451171875
1.2255859375
1.201171875
1.171875
1.1474609375
1.1181640625
1.09375
1.0693359375
1.044921875
1.0205078125
0.99609375
0.9716796875
0.9521484375
0.9326171875
0.91796875
0.8984375
0.8837890625
0.869140625
0.859375
0.849609375
0.83984375
0.830078125
0.8203125
0.8154296875
0.8154296875
0.810546875
0.8056640625
0.80078125
0.80078125
0.80078125
0.8056640625
0.8154296875
0.8447265625
0.9033203125
0.99609375
1.09375
1.201171875
1.30859375
1.4111328125
1.494140625
1.5771484375
1.6455078125
1.708984375
1.7578125
1.796875
1.826171875
1.8505859375
1.8701171875
1.8798828125
1.8896484375
1.8896484375
1.884765625
1.875
1.8603515625
1.8408203125
1.81640625
1.787109375
1.7578125
1.728515625
1.6943359375
1.66015625
1.630859375
1.6015625
1.572265625
1.5478515625
1.5283203125
1.5087890625
1.4892578125
1.474609375
1.4599609375
1.4453125
1.4306640625
1.4111328125
1.396484375
1.3818359375
1.3623046875
1.34765625
1.328125
1.30859375
1.2890625
1.26953125
1.2451171875
1.220703125
1.201171875
1.1767578125
1.15234375
1.1328125
1.1083984375
1.0888671875
1.064453125
1.044921875
1.025390625
1.005859375
0.986328125
0.9716796875
0.95703125
0.9423828125
0.927734375
0.9130859375
0.9033203125
0.888671875
0.8837890625
0.8740234375
0.869140625
0.859375
0.859375
0.859375
0.8642578125
0.888671875
0.9423828125
1.0302734375
1.1328125
1.2255859375
1.328125
1.42578125
1.513671875
1.5869140625
1.66015625
1.7236328125
1.77734375
1.81640625
1.8505859375
1.8798828125
1.8994140625
1.9140625
1.9189453125
1.923828125
1.923828125
1.9189453125
1.904296875
1.8896484375
1.8701171875
1.845703125
1.8212890625
1.787109375
1.7578125
1.7236328125
1.6943359375
1.66015625
1.630859375
1.6064453125
1.58203125
1.5625
1.54296875
1.5234375
1.5087890625
1.494140625
1.4794921875
1.4599609375
1.4453125
1.4306640625
1.416015625
1.396484375
1.376953125
1.357421875
1.337890625
1.3134765625
1.2890625
1.2646484375
1.240234375
1.2158203125
1.1865234375
1.162109375
1.1376953125
1.11328125
1.0888671875
1.064453125
1.0400390625
1.0205078125
1.005859375
0.986328125
0.966796875
0.9521484375
0.9326171875
0.9228515625
0.908203125
0.8935546875
0.8837890625
0.869140625
0.8642578125
0.8544921875
0.849609375
0.8447265625
0.83984375
0.83984375
0.8544921875
0.888671875
0.9521484375
1.0400390625
1.142578125
1.25
1.3525390625
1.4404296875
1.5283203125
1.611328125
1.6796875
1.73828125
1.7822265625
1.826171875
1.85546875
1.884765625
1.8994140625
1.9140625
1.9189453125
1.923828125
1.9189453125
1.9140625
1.904296875
1.884765625
1.865234375
1.8359375
1.8115234375
1.77734375
1.7431640625
1.7138671875
1.6796875
1.650390625
1.62109375
1.591796875
1.5673828125
1.5478515625
1.5283203125
1.5087890625
1.4892578125
1.4794921875
1.4599609375
1.4404296875
1.42578125
1.4208984375
1.4111328125
1.3916015625
1.376953125
1.3623046875
1.3427734375
1.3330078125
1.298828125
1.2744140625
1.259765625
1.2255859375
1.2060546875
1.1865234375
1.15234375
1.123046875
1.1083984375
1.0693359375
1.0498046875
1.03515625
1.0107421875
1.0009765625
0.9716796875
0.95703125
0.9619140625
0.927734375
0.927734375
0.9228515625
0.8935546875
0.8984375
0.888671875
0.87890625
0.87890625
0.8642578125
0.859375
0.8642578125
0.8544921875
0.859375
0.8935546875
0.927734375
1.015625
1.123046875
1.2158203125
1.318359375
1.4111328125
1.4990234375
1.572265625
1.640625
1.7138671875
1.7822265625
1.8115234375
1.85546875
1.89453125
1.904296875
1.923828125
1.9287109375
1.93359375
1.943359375
1.93359375
1.923828125
1.9189453125
1.8798828125
1.8603515625
1.8359375
1.787109375
1.748046875
1.7041015625
1.6650390625
1.6259765625
1.591796875
1.5625
1.5380859375
1.5087890625
1.4892578125
1.4794921875
1.455078125
1.4501953125
1.4404296875
1.4208984375
1.4111328125
1.3916015625
1.376953125
1.3671875
1.3427734375
1.3232421875
1.3134765625
1.2744140625
1.2548828125
1.240234375
1.201171875
1.181640625
1.15234375
1.1181640625
1.0986328125
1.07421875
1.044921875
1.0302734375
0.99609375
0.9765625
0.9765625
0.9423828125
0.9326171875
0.927734375
0.8984375
0.8837890625
0.8837890625
0.8642578125
0.859375
0.8544921875
0.83984375
0.8447265625
0.830078125
0.8251953125
0.830078125
0.810546875
0.8203125
0.8447265625
0.8642578125
0.91796875
1.005859375
1.1083984375
1.220703125
1.3330078125
1.4208984375
1.5234375
1.591796875
1.66015625
1.7236328125
1.767578125
1.81640625
1.8505859375
1.8701171875
1.8994140625
1.8994140625
1.9140625
1.923828125
1.904296875
1.8994140625
1.89453125
1.85546875
1.8359375
1.8115234375
1.767578125
1.7236328125
1.6796875
1.640625
1.611328125
1.5771484375
1.5478515625
1.5380859375
1.4990234375
1.484375
1.474609375
1.4453125
1.4404296875
1.435546875
1.40625
1.4013671875
1.3818359375
1.3623046875
1.34765625
1.318359375
1.3037109375
1.26953125
1.2353515625
1.2255859375
1.19140625
1.162109375
1.142578125
1.11328125
1.09375
1.07421875
1.044921875
1.0205078125
1.0009765625
0.9716796875
0.9521484375
0.9375
0.91796875
0.908203125
0.9033203125
0.8837890625
0.8740234375
0.859375
0.849609375
0.859375
0.83984375
0.83984375
0.849609375
0.830078125
0.830078125
0.8447265625
0.849609375
0.8984375
0.986328125
1.07421875
1.181640625
1.2841796875
1.3916015625
1.484375
1.5673828125
1.640625
1.71875
1.767578125
1.81640625
1.85546875
1.8798828125
1.9140625
1.923828125
1.93359375
1.9482421875
1.9384765625
1.943359375
1.943359375
1.9140625
1.8994140625
1.8798828125
1.8408203125
1.81640625
1.7724609375
1.7431640625
1.7138671875
1.669921875
1.640625
1.6162109375
1.5771484375
1.5478515625
1.5185546875
1.494140625
1.474609375
1.4501953125
1.4306640625
1.4111328125
1.3916015625
1.3720703125
1.3525390625
1.328125
1.30859375
1.2841796875
1.259765625
1.2353515625
1.2109375
1.1865234375
1.1572265625
1.1328125
1.103515625
1.0791015625
1.0595703125
1.044921875
1.0400390625
1.005859375
0.99609375
0.9765625
0.9521484375
0.9423828125
0.9375
0.9130859375
0.9033203125
0.8935546875
0.87890625
0.8837890625
0.859375
0.859375
0.8447265625
0.8349609375
0.8349609375
0.8447265625
0.8349609375
0.8447265625
0.8544921875
0.8837890625
0.947265625
1.03515625
1.15234375
1.279296875
1.3720703125
1.4697265625
1.5673828125
1.640625
1.7138671875
1.767578125
1.8115234375
1.865234375
1.8994140625
1.923828125
1.953125
1.953125
1.962890625
1.9580078125
1.9482421875
1.9384765625
1.923828125
1.8994140625
1.875
1.8505859375
1.8115234375
1.7822265625
1.7431640625
1.708984375
1.689453125
1.6455078125
1.611328125
1.5869140625
1.5576171875
1.533203125
1.50390625
1.484375
1.4697265625
1.4501953125
1.4306640625
1.4208984375
1.396484375
1.3818359375
1.3720703125
1.337890625
1.3232421875
1.3037109375
1.2744140625
1.2548828125
1.220703125
1.181640625
1.1669921875
1.1376953125
1.11328125
1.1083984375
1.064453125
1.044921875
1.03515625
1.0009765625
0.9814453125
0.9619140625
0.9423828125
0.9326171875
0.9130859375
0.8984375
0.8935546875
0.869140625
0.8642578125
0.869140625
0.8447265625
0.83984375
0.83984375
0.8251953125
0.830078125
0.8154296875
0.8056640625
0.80078125
0.810546875
0.8251953125
0.888671875
0.9521484375
1.0595703125
1.171875
1.279296875
1.3916015625
1.484375
1.5771484375
1.66015625
1.728515625
1.7822265625
1.8310546875
1.8603515625
1.89453125
1.9287109375
1.93359375
1.943359375
1.9580078125
1.9482421875
1.9482421875
1.9384765625
1.9189453125
1.8994140625
1.85546875
1.8310546875
1.8115234375
1.7578125
1.71875
1.6943359375
1.6455078125
1.6162109375
1.58203125
1.5478515625
1.5283203125
1.494140625
1.4697265625
1.4501953125
1.4208984375
1.4111328125
1.4013671875
1.3671875
1.357421875
1.3427734375
1.30859375
1.2939453125
1.2744140625
1.2451171875
1.2255859375
1.1962890625
1.1669921875
1.1572265625
1.11328125
1.09375
1.0791015625
1.0400390625
1.025390625
1.005859375
0.9814453125
0.966796875
0.9375
0.9130859375
0.9033203125
0.8837890625
0.8740234375
0.869140625
0.8447265625
0.8349609375
0.8447265625
0.8251953125
0.830078125
0.8349609375
0.8251953125
0.830078125
0.8251953125
0.8251953125
0.8203125
0.8203125
0.849609375
0.91796875
0.99609375
1.09375
1.2060546875
1.3232421875
1.4306640625
1.5087890625
1.591796875
1.6748046875
1.7333984375
1.7822265625
1.8359375
1.865234375
1.8896484375
1.9140625
1.9189453125
1.9384765625
1.93359375
1.9189453125
1.8994140625
1.875
1.845703125
1.8115234375
1.77734375
1.7578125
1.71875
1.6748046875
1.650390625
1.6162109375
1.5869140625
1.5576171875
1.5283203125
1.50390625
1.4892578125
1.46484375
1.4453125
1.4306640625
1.4013671875
1.376953125
1.3623046875
1.337890625
1.3330078125
1.318359375
1.2939453125
1.2890625
1.2548828125
1.2353515625
1.2255859375
1.1865234375
1.171875
1.1572265625
1.1181640625
1.09375
1.07421875
1.044921875
1.03515625
1.0107421875
0.986328125
0.9814453125
0.947265625
0.9423828125
0.9326171875
0.908203125
0.8984375
0.888671875
0.869140625
0.869140625
0.8642578125
0.849609375
0.8544921875
0.8447265625
0.83984375
0.859375
0.8642578125
0.9033203125
0.9765625
1.064453125
1.1767578125
1.279296875
1.38671875
1.484375
1.5771484375
1.650390625
1.7236328125
1.7724609375
1.81640625
1.85546875
1.875
1.8994140625
1.9189453125
1.923828125
1.923828125
1.923828125
1.9189453125
1.904296875
1.8896484375
1.8701171875
1.8603515625
1.8212890625
1.796875
1.77734375
1.7333984375
1.69921875
1.669921875
1.6357421875
1.6162109375
1.58203125
1.5625
1.552734375
1.5185546875
1.5087890625
1.4892578125
1.4599609375
1.4501953125
1.435546875
1.4111328125
1.3916015625
1.3623046875
1.3330078125
1.3037109375
1.279296875
1.2548828125
1.2451171875
1.2060546875
1.1865234375
1.1767578125
1.142578125
1.1279296875
1.1083984375
1.0791015625
1.0595703125
1.0302734375
1.0107421875
1.0009765625
0.9765625
0.9619140625
0.95703125
0.927734375
0.9130859375
0.888671875
0.8740234375
0.859375
0.8544921875
0.8447265625
0.8447265625
0.8349609375
0.830078125
0.8447265625
0.83984375
0.8740234375
0.9228515625
0.986328125
1.0986328125
1.220703125
1.3232421875
1.42578125
1.5234375
1.611328125
1.6943359375
1.748046875
1.8115234375
1.865234375
1.8896484375
1.9287109375
1.9580078125
1.9677734375
1.982421875
1.9775390625
1.9775390625
1.9775390625
1.9580078125
1.9384765625
1.93359375
1.89453125
1.875
1.8505859375
1.8017578125
1.767578125
1.7333984375
1.689453125
1.6650390625
1.6259765625
1.591796875
1.572265625
1.5380859375
1.5185546875
1.50390625
1.4697265625
1.455078125
1.4453125
1.4111328125
1.396484375
1.3671875
1.337890625
1.328125
1.3037109375
1.26953125
1.2451171875
1.2109375
1.1962890625
1.1865234375
1.1474609375
1.1279296875
1.11328125
1.0791015625
1.064453125
1.0400390625
1.015625
1.0009765625
0.9716796875
0.9619140625
0.95703125
0.9228515625
0.908203125
0.9033203125
0.87890625
0.87890625
0.869140625
0.849609375
0.8349609375
0.8203125
0.8056640625
0.8056640625
0.791015625
0.8056640625
0.83984375
0.8642578125
0.9326171875
1.0400390625
1.1474609375
1.26953125
1.3623046875
1.46484375
1.5673828125
1.640625
1.7138671875
1.7822265625
1.81640625
1.8505859375
1.8896484375
1.904296875
1.923828125
1.9482421875
1.953125
1.9580078125
1.943359375
1.943359375
1.9287109375
1.904296875
1.884765625
1.85546875
1.8115234375
1.7822265625
1.7529296875
1.7138671875
1.6748046875
1.6455078125
1.611328125
1.58203125
1.54296875
1.5234375
1.5087890625
1.4794921875
1.4501953125
1.435546875
1.40625
1.3916015625
1.3720703125
1.337890625
1.328125
1.298828125
1.2744140625
1.2548828125
1.220703125
1.19140625
1.1669921875
1.1328125
1.11328125
1.09375
1.064453125
1.044921875
1.015625
0.99609375
0.986328125
0.9521484375
0.9423828125
0.9423828125
0.9033203125
0.8935546875
0.8935546875
0.8642578125
0.8544921875
0.8544921875
0.8349609375
0.830078125
0.8203125
0.8154296875
0.810546875
0.7958984375
0.80078125
0.810546875
0.7958984375
0.8056640625
0.8349609375
0.869140625
0.9521484375
1.0546875
1.1669921875
1.279296875
1.376953125
1.4794921875
1.572265625
1.6357421875
1.7138671875
1.77734375
1.81640625
1.8603515625
1.884765625
1.904296875
1.9140625
1.9189453125
1.9189453125
1.923828125
1.9140625
1.9091796875
1.8994140625
1.8701171875
1.8408203125
1.8115234375
1.77734375
1.7431640625
1.69921875
1.6552734375
1.6357421875
1.5869140625
1.5625
1.54296875
1.50390625
1.474609375
1.46484375
1.4306640625
1.416015625
1.4013671875
1.3818359375
1.3623046875
1.3330078125
1.3134765625
1.2939453125
1.2646484375
1.2353515625
1.220703125
1.1865234375
1.1572265625
1.1279296875
1.0986328125
1.0791015625
1.0546875
1.0205078125
1.0107421875
0.9814453125
0.966796875
0.9619140625
0.927734375
0.91796875
0.9130859375
0.888671875
0.87890625
0.8642578125
0.8544921875
0.8544921875
0.8447265625
0.83984375
0.8447265625
0.8251953125
0.830078125
0.849609375
0.8251953125
0.8349609375
0.8349609375
0.83984375
0.87890625
0.9326171875
1.025390625
1.1474609375
1.240234375
1.357421875
1.474609375
1.552734375
1.6455078125
1.7138671875
1.767578125
1.81640625
1.865234375
1.8896484375
1.923828125
1.93359375
1.9482421875
1.962890625
1.9482421875
1.943359375
1.943359375
1.9140625
1.8994140625
1.8701171875
1.826171875
1.8017578125
1.7578125
1.71875
1.689453125
1.6455078125
1.6162109375
1.591796875
1.5478515625
1.5185546875
1.4990234375
1.474609375
1.455078125
1.42578125
1.40625
1.376953125
1.34765625
1.3232421875
1.318359375
1.2890625
1.2744140625
1.26953125
1.23046875
1.2109375
1.19140625
1.162109375
1.1376953125
1.1181640625
1.0888671875
1.07421875
1.0400390625
1.0107421875
1.0009765625
0.9716796875
0.9521484375
0.947265625
0.91796875
0.908203125
0.908203125
0.8837890625
0.8837890625
0.8740234375
0.859375
0.8642578125
0.8447265625
0.8447265625
0.8544921875
0.830078125
0.849609375
0.8642578125
0.8837890625
0.9375
1.005859375
1.123046875
1.2451171875
1.34765625
1.4599609375
1.552734375
1.630859375
1.7041015625
1.7822265625
1.8212890625
1.875
1.9140625
1.9384765625
1.9677734375
1.97265625
1.9873046875
2.001953125
1.9873046875
1.9921875
1.9921875
1.9580078125
1.9384765625
1.9140625
1.875
1.845703125
1.8017578125
1.767578125
1.728515625
1.6796875
1.6455078125
1.62109375
1.5771484375
1.5478515625
1.5283203125
1.494140625
1.474609375
1.4501953125
1.4208984375
1.4013671875
1.3818359375
1.357421875
1.3427734375
1.3134765625
1.2939453125
1.2744140625
1.23046875
1.2109375
1.19140625
1.1572265625
1.1328125
1.1083984375
1.0791015625
1.0595703125
1.0205078125
0.99609375
0.9814453125
0.947265625
0.927734375
0.91796875
0.8837890625
0.8740234375
0.8544921875
0.83984375
0.8251953125
0.810546875
0.80078125
0.7861328125
0.7763671875
0.78125
0.7958984375
0.78125
0.7861328125
0.7958984375
0.791015625
0.80078125
0.8349609375
0.888671875
0.9814453125
1.083984375
1.2109375
1.337890625
1.42578125
1.533203125
1.6162109375
1.6845703125
1.7578125
1.8212890625
1.8603515625
1.9091796875
1.943359375
1.962890625
1.9921875
1.9921875
1.9873046875
1.982421875
1.9677734375
1.953125
1.9287109375
1.904296875
1.8701171875
1.8310546875
1.787109375
1.748046875
1.7041015625
1.66015625
1.6162109375
1.5771484375
1.54296875
1.50390625
1.474609375
1.4404296875
1.416015625
1.396484375
1.38671875
1.3671875
1.3525390625
1.34765625
1.3134765625
1.298828125
1.2890625
1.2548828125
1.2353515625
1.220703125
1.181640625
1.162109375
1.1328125
1.103515625
1.0791015625
1.0498046875
1.0205078125
1.0009765625
0.9716796875
0.947265625
0.9326171875
0.9130859375
0.8935546875
0.8837890625
0.8642578125
0.849609375
0.83984375
0.830078125
0.8349609375
0.8203125
0.8203125
0.830078125
0.810546875
0.8154296875
0.8251953125
0.810546875
0.8203125
0.8251953125
0.8203125
0.8349609375
0.83984375
0.87890625
0.95703125
1.0302734375
1.1474609375
1.2548828125
1.3623046875
1.474609375
1.572265625
1.6455078125
1.708984375
1.7724609375
1.8212890625
1.865234375
1.89453125
1.9287109375
1.9677734375
1.97265625
1.9970703125
2.001953125
1.9921875
1.9970703125
1.9775390625
1.9580078125
1.9287109375
1.884765625
1.8505859375
1.8212890625
1.7626953125
1.7333984375
1.6845703125
1.630859375
1.591796875
1.552734375
1.513671875
1.4794921875
1.455078125
1.4208984375
1.4013671875
1.3720703125
1.3525390625
1.34765625
1.30859375
1.2939453125
1.279296875
1.240234375
1.2255859375
1.201171875
1.171875
1.1572265625
1.1279296875
1.103515625
1.09375
1.0498046875
1.03515625
1.025390625
0.9912109375
0.9716796875
0.947265625
0.9228515625
0.9130859375
0.8935546875
0.8837890625
0.8740234375
0.8544921875
0.8544921875
0.859375
0.83984375
0.849609375
0.8544921875
0.8349609375
0.83984375
0.8447265625
0.8349609375
0.849609375
0.83984375
0.83984375
0.859375
0.8447265625
0.859375
0.8935546875
0.9033203125
0.9716796875
1.0546875
1.162109375
1.2841796875
1.3916015625
1.484375
1.5869140625
1.6650390625
1.728515625
1.796875
1.8359375
1.8896484375
1.9287109375
1.943359375
1.97265625
1.982421875
1.982421875
1.9921875
1.97265625
1.962890625
1.953125
1.9091796875
1.8798828125
1.8505859375
1.7919921875
1.7578125
1.708984375
1.66015625
1.62109375
1.572265625
1.5234375
1.4794921875
1.435546875
1.4111328125
1.38671875
1.34765625
1.3330078125
1.30859375
1.2744140625
1.259765625
1.2353515625
1.201171875
1.19140625
1.15234375
1.1328125
1.1181640625
1.083984375
1.0693359375
1.0595703125
1.0205078125
1.015625
1.0009765625
0.9716796875
0.947265625
0.927734375
0.908203125
0.888671875
0.8837890625
0.8740234375
0.8740234375
0.8544921875
0.859375
0.869140625
0.8544921875
0.869140625
0.8740234375
0.869140625
0.87890625
0.869140625
0.8740234375
0.8837890625
0.8740234375
0.888671875
0.9033203125
0.8935546875
0.9033203125
0.9326171875
0.9716796875
1.0546875
1.1572265625
1.259765625
1.38671875
1.4794921875
1.572265625
1.6552734375
1.7236328125
1.787109375
1.845703125
1.875
1.9140625
1.9384765625
1.9482421875
1.962890625
1.9580078125
1.962890625
1.953125
1.923828125
1.9140625
1.89453125
1.8505859375
1.8212890625
1.7822265625
1.728515625
1.6943359375
1.650390625
1.6064453125
1.5673828125
1.5185546875
1.4794921875
1.4501953125
1.4111328125
1.3916015625
1.3671875
1.3330078125
1.318359375
1.3037109375
1.2744140625
1.2548828125
1.23046875
1.2109375
1.201171875
1.1669921875
1.15234375
1.1376953125
1.103515625
1.0888671875
1.0791015625
1.0498046875
1.03515625
1.015625
0.986328125
0.9716796875
0.947265625
0.9375
0.927734375
0.908203125
0.8984375
0.9033203125
0.888671875
0.8984375
0.8984375
0.8837890625
0.8984375
0.8984375
0.8935546875
0.908203125
0.8935546875
0.8984375
0.8984375
0.8984375
0.91796875
0.9521484375
0.9814453125
1.0546875
1.142578125
1.259765625
1.3818359375
1.4794921875
1.5771484375
1.6748046875
1.7431640625
1.8017578125
1.8603515625
1.8994140625
1.9384765625
1.9580078125
1.97265625
1.982421875
1.9921875
1.9921875
2.001953125
1.982421875
1.97265625
1.9580078125
1.9189453125
1.884765625
1.8505859375
1.806640625
1.7724609375
1.728515625
1.689453125
1.6552734375
1.6064453125
1.5771484375
1.552734375
1.5087890625
1.484375
1.455078125
1.42578125
1.4013671875
1.3818359375
1.34765625
1.3232421875
1.298828125
1.2744140625
1.2646484375
1.2255859375
1.2060546875
1.1865234375
1.15234375
1.1376953125
1.123046875
1.083984375
1.07421875
1.0546875
1.0302734375
1.025390625
1.0009765625
0.9814453125
0.9716796875
0.9521484375
0.9423828125
0.947265625
0.927734375
0.9130859375
0.908203125
0.8935546875
0.8984375
0.8984375
0.8837890625
0.888671875
0.8740234375
0.8837890625
0.8984375
0.8837890625
0.8935546875
0.9130859375
0.9228515625
0.9521484375
0.99609375
1.0791015625
1.181640625
1.2939453125
1.3916015625
1.494140625
1.58203125
1.66015625
1.7236328125
1.77734375
1.826171875
1.865234375
1.8994140625
1.923828125
1.9384765625
1.9482421875
1.953125
1.953125
1.9482421875
1.953125
1.923828125
1.9140625
1.8798828125
1.8408203125
1.806640625
1.7626953125
1.71875
1.689453125
1.6357421875
1.5966796875
1.5673828125
1.5185546875
1.4990234375
1.484375
1.4453125
1.4208984375
1.4013671875
1.3720703125
1.3525390625
1.328125
1.298828125
1.2841796875
1.25
1.2353515625
1.2158203125
1.1767578125
1.1669921875
1.142578125
1.11328125
1.103515625
1.083984375
1.0546875
1.044921875
1.015625
1.0009765625
1.0009765625
0.9716796875
0.9619140625
0.9619140625
0.9375
0.9326171875
0.927734375
0.91796875
0.91796875
0.8935546875
0.888671875
0.8935546875
0.87890625
0.87890625
0.888671875
0.8740234375
0.8837890625
0.888671875
0.8837890625
0.8984375
0.9033203125
0.908203125
0.9375
0.9765625
1.0498046875
1.1474609375
1.2451171875
1.3623046875
1.4794921875
1.5576171875
1.640625
1.7236328125
1.77734375
1.8359375
1.865234375
1.8994140625
1.9189453125
1.93359375
1.9482421875
1.962890625
1.953125
1.943359375
1.9384765625
1.9189453125
1.884765625
1.8505859375
1.806640625
1.767578125
1.7236328125
1.689453125
1.650390625
1.6064453125
1.5673828125
1.5283203125
1.4892578125
1.4697265625
1.435546875
1.40625
1.3916015625
1.3623046875
1.3427734375
1.318359375
1.2890625
1.26953125
1.2646484375
1.2255859375
1.2060546875
1.1865234375
1.15234375
1.142578125
1.1181640625
1.083984375
1.0791015625
1.044921875
1.03515625
1.03515625
1.0009765625
0.9912109375
0.9912109375
0.9619140625
0.9521484375
0.947265625
0.9326171875
0.9228515625
0.9228515625
0.9130859375
0.9228515625
0.9033203125
0.8984375
0.9033203125
0.8935546875
0.8984375
0.8984375
0.888671875
0.8984375
0.8984375
0.9033203125
0.9130859375
0.908203125
0.91796875
0.947265625
0.947265625
0.986328125
1.044921875
1.11328125
1.220703125
1.30859375
1.4208984375
1.5185546875
1.5966796875
1.6650390625
1.7333984375
1.7822265625
1.81640625
1.85546875
1.875
1.8896484375
1.8994140625
1.8994140625
1.8994140625
1.89453125
1.875
1.8603515625
1.8310546875
1.8017578125
1.77734375
1.7236328125
1.689453125
1.6552734375
1.6015625
1.5625
1.5283203125
1.484375
1.455078125
1.4208984375
1.3916015625
1.3720703125
1.3330078125
1.3134765625
1.30859375
1.26953125
1.2451171875
1.23046875
1.201171875
1.171875
1.1474609375
1.123046875
1.0986328125
1.083984375
1.064453125
1.0693359375
1.0400390625
1.03515625
1.0302734375
1.0107421875
1.0107421875
0.99609375
0.9814453125
0.9716796875
0.9619140625
0.95703125
0.9521484375
0.9375
0.9326171875
0.947265625
0.9326171875
0.927734375
0.927734375
0.9228515625
0.9228515625
0.927734375
0.927734375
0.9228515625
0.927734375
0.9326171875
0.95703125
0.9521484375
0.986328125
1.03515625
1.0791015625
1.171875
1.279296875
1.376953125
1.474609375
1.5673828125
1.650390625
1.7333984375
1.77734375
1.826171875
1.8798828125
1.89453125
1.923828125
1.943359375
1.943359375
1.953125
1.9384765625
1.923828125
1.9189453125
1.884765625
1.85546875
1.8359375
1.787109375
1.748046875
1.71875
1.669921875
1.6357421875
1.591796875
1.552734375
1.513671875
1.4697265625
1.4404296875
1.42578125
1.38671875
1.3720703125
1.3525390625
1.3134765625
1.298828125
1.2841796875
1.2548828125
1.2451171875
1.2158203125
1.1962890625
1.181640625
1.15234375
1.1279296875
1.1181640625
1.0888671875
1.0791015625
1.0693359375
1.044921875
1.044921875
1.0400390625
1.0205078125
1.015625
1.0107421875
0.99609375
0.99609375
0.986328125
0.9814453125
0.9912109375
0.966796875
0.9716796875
0.9814453125
0.966796875
0.966796875
0.95703125
0.947265625
0.947265625
0.9375
0.9375
0.947265625
0.947265625
0.966796875
1.005859375
1.0400390625
1.1181640625
1.2158203125
1.3232421875
1.435546875
1.5234375
1.6162109375
1.7041015625
1.7578125
1.826171875
1.884765625
1.9091796875
1.943359375
1.9677734375
1.97265625
1.9873046875
1.9921875
1.982421875
1.962890625
1.943359375
1.9189453125
1.8896484375
1.8505859375
1.8212890625
1.7822265625
1.7333984375
1.69921875
1.6650390625
1.62109375
1.5869140625
1.5576171875
1.5185546875
1.4892578125
1.455078125
1.4306640625
1.4208984375
1.3818359375
1.357421875
1.3427734375
1.3134765625
1.298828125
1.279296875
1.25
1.2353515625
1.201171875
1.1767578125
1.162109375
1.123046875
1.11328125
1.09375
1.064453125
1.0595703125
1.0498046875
1.025390625
1.005859375
0.986328125
0.9765625
0.966796875
0.947265625
0.947265625
0.9375
0.927734375
0.9228515625
0.927734375
0.91796875
0.91796875
0.91796875
0.91796875
0.9326171875
0.9228515625
0.9326171875
0.9375
0.927734375
0.9326171875
0.947265625
0.947265625
0.9765625
1.0302734375
1.0986328125
1.201171875
1.3134765625
1.4208984375
1.5185546875
1.6015625
1.689453125
1.767578125
1.806640625
1.8603515625
1.904296875
1.923828125
1.953125
1.9580078125
1.962890625
1.9580078125
1.9482421875
1.9287109375
1.923828125
1.89453125
1.8701171875
1.845703125
1.8017578125
1.7626953125
1.7236328125
1.6796875
1.6455078125
1.6064453125
1.5673828125
1.552734375
1.4990234375
1.474609375
1.4599609375
1.416015625
1.396484375
1.376953125
1.3427734375
1.328125
1.30859375
1.279296875
1.2646484375
1.2255859375
1.1962890625
1.181640625
1.142578125
1.123046875
1.1083984375
1.0791015625
1.0595703125
1.0400390625
1.0205078125
1.0107421875
0.9912109375
0.9814453125
0.9814453125
0.966796875
0.9619140625
0.966796875
0.947265625
0.9521484375
0.9521484375
0.9375
0.9423828125
0.9375
0.927734375
0.9375
0.9423828125
0.9375
0.9521484375
0.9375
0.947265625
0.95703125
0.9423828125
0.9521484375
0.947265625
0.947265625
0.966796875
0.986328125
1.025390625
1.0986328125
1.1669921875
1.279296875
1.396484375
1.484375
1.58203125
1.66015625
1.71875
1.77734375
1.8310546875
1.85546875
1.8896484375
1.8994140625
1.9140625
1.9287109375
1.9189453125
1.923828125
1.904296875
1.884765625
1.8603515625
1.826171875
1.787109375
1.7578125
1.7138671875
1.6650390625
1.630859375
1.5869140625
1.552734375
1.513671875
1.4697265625
1.4453125
1.42578125
1.38671875
1.3623046875
1.3427734375
1.30859375
1.279296875
1.2548828125
1.220703125
1.2158203125
1.1865234375
1.1572265625
1.15234375
1.123046875
1.1083984375
1.09375
1.07421875
1.064453125
1.0498046875
1.0302734375
1.025390625
1.0107421875
1.005859375
1.0009765625
0.9814453125
0.9814453125
0.9814453125
0.966796875
0.9619140625
0.966796875
0.9619140625
0.9619140625
0.9619140625
0.95703125
0.9619140625
0.95703125
0.966796875
0.9765625
0.9619140625
0.9814453125
0.9814453125
0.9765625
0.9912109375
0.986328125
0.9912109375
1.0009765625
1.015625
1.044921875
1.1083984375
1.1669921875
1.259765625
1.3720703125
1.4501953125
1.5478515625
1.630859375
1.6943359375
1.7578125
1.8017578125
1.8408203125
1.8798828125
1.884765625
1.9091796875
1.923828125
1.9091796875
1.9140625
1.904296875
1.8798828125
1.8603515625
1.81640625
1.787109375
1.748046875
1.6943359375
1.6552734375
1.62109375
1.5673828125
1.5234375
1.484375
1.4404296875
1.4013671875
1.3720703125
1.337890625
1.3134765625
1.2841796875
1.2548828125
1.2451171875
1.2158203125
1.201171875
1.201171875
1.1669921875
1.1572265625
1.1474609375
1.1279296875
1.123046875
1.1083984375
1.09375
1.07421875
1.0595703125
1.0498046875
1.0498046875
1.025390625
1.0205078125
1.025390625
1.005859375
1.0107421875
0.99609375
0.986328125
0.9814453125
0.9716796875
0.9619140625
0.9716796875
0.9619140625
0.9716796875
0.9814453125
0.9765625
0.986328125
0.9814453125
0.9814453125
0.99609375
1.0009765625
1.005859375
1.0205078125
1.015625
1.0302734375
1.07421875
1.103515625
1.1767578125
1.26953125
1.357421875
1.4697265625
1.5478515625
1.6162109375
1.6845703125
1.7431640625
1.7822265625
1.81640625
1.845703125
1.865234375
1.8798828125
1.8896484375
1.8896484375
1.884765625
1.875
1.8603515625
1.8310546875
1.8017578125
1.767578125
1.7333984375
1.689453125
1.650390625
1.6064453125
1.5673828125
1.5234375
1.4892578125
1.4599609375
1.4404296875
1.4111328125
1.4013671875
1.376953125
1.357421875
1.3525390625
1.3232421875
1.30859375
1.3037109375
1.2744140625
1.259765625
1.25
1.220703125
1.1962890625
1.171875
1.15234375
1.1376953125
1.11328125
1.103515625
1.09375
1.07421875
1.064453125
1.0498046875
1.03515625
1.03515625
1.03515625
1.0205078125
1.0205078125
1.0205078125
1.015625
1.0205078125
1.0009765625
1.005859375
1.0205078125
1.0009765625
1.0107421875
1.015625
1.005859375
1.0107421875
1.005859375
1.005859375
1.0205078125
1.005859375
1.0107421875
1.044921875
1.0595703125
1.1083984375
1.171875
1.2548828125
1.3525390625
1.455078125
1.5380859375
1.6162109375
1.689453125
1.7529296875
1.8017578125
1.8408203125
1.875
1.904296875
1.9140625
1.93359375
1.9482421875
1.9482421875
1.943359375
1.9287109375
1.9140625
1.884765625
1.8505859375
1.8310546875
1.806640625
1.7529296875
1.71875
1.6845703125
1.6357421875
1.5966796875
1.5576171875
1.513671875
1.4892578125
1.455078125
1.4208984375
1.38671875
1.357421875
1.3427734375
1.337890625
1.3037109375
1.2939453125
1.279296875
1.25
1.240234375
1.2158203125
1.1962890625
1.1865234375
1.162109375
1.142578125
1.1328125
1.103515625
1.09375
1.0986328125
1.0693359375
1.0546875
1.0498046875
1.0302734375
1.025390625
1.0107421875
1.005859375
1.0009765625
0.986328125
0.986328125
0.99609375
0.9765625
0.986328125
0.9912109375
0.9765625
0.986328125
0.9765625
0.9765625
0.9814453125
0.966796875
0.9716796875
0.986328125
0.9765625
0.99609375
1.025390625
1.0498046875
1.11328125
1.19140625
1.2890625
1.396484375
1.494140625
1.58203125
1.66015625
1.71875
1.7724609375
1.8359375
1.8603515625
1.89453125
1.9189453125
1.9287109375
1.9482421875
1.953125
1.953125
1.9482421875
1.923828125
1.9091796875
1.8896484375
1.8408203125
1.8115234375
1.77734375
1.7236328125
1.6943359375
1.6552734375
1.611328125
1.5625
1.5185546875
1.4794921875
1.4404296875
1.40625
1.3818359375
1.3671875
1.3330078125
1.318359375
1.298828125
1.2744140625
1.259765625
1.240234375
1.2109375
1.201171875
1.171875
1.15234375
1.1474609375
1.11328125
1.0986328125
1.09375
1.064453125
1.064453125
1.0498046875
1.03515625
1.025390625
1.005859375
1.0009765625
0.986328125
0.9765625
0.966796875
0.9716796875
0.95703125
0.9619140625
0.9716796875
0.9619140625
0.9716796875
0.9716796875
0.966796875
0.9765625
0.966796875
0.9716796875
0.986328125
0.9716796875
0.9814453125
0.99609375
0.9814453125
1.0009765625
1.0107421875
1.025390625
1.0791015625
1.142578125
1.2158203125
1.30859375
1.4013671875
1.494140625
1.5771484375
1.6455078125
1.7138671875
1.7724609375
1.8017578125
1.8408203125
1.865234375
1.8896484375
1.9091796875
1.9091796875
1.9091796875
1.9189453125
1.8896484375
1.884765625
1.8603515625
1.81640625
1.787109375
1.748046875
1.7041015625
1.6650390625
1.611328125
1.572265625
1.5380859375
1.484375
1.4501953125
1.416015625
1.3818359375
1.3525390625
1.3330078125
1.2939453125
1.2841796875
1.259765625
1.240234375
1.2255859375
1.201171875
1.1865234375
1.181640625
1.1474609375
1.1328125
1.1328125
1.103515625
1.09375
1.083984375
1.0595703125
1.044921875
1.0302734375
1.0107421875
1.0009765625
0.9912109375
0.9765625
0.9814453125
0.966796875
0.966796875
0.9716796875
0.966796875
0.966796875
0.966796875
0.9716796875
0.986328125
0.9765625
0.9814453125
0.986328125
0.9765625
0.9765625
0.9814453125
0.9765625
0.9814453125
0.9912109375
1.0009765625
1.015625
1.03515625
1.0791015625
1.1376953125
1.2158203125
1.30859375
1.4111328125
1.494140625
1.5771484375
1.6455078125
1.7041015625
1.7529296875
1.7919921875
1.826171875
1.865234375
1.875
1.8896484375
1.904296875
1.8896484375
1.884765625
1.875
1.8359375
1.806640625
1.7724609375
1.728515625
1.69921875
1.6455078125
1.6064453125
1.572265625
1.5234375
1.4892578125
1.4599609375
1.416015625
1.396484375
1.3720703125
1.337890625
1.318359375
1.298828125
1.2744140625
1.259765625
1.240234375
1.220703125
1.220703125
1.1865234375
1.1767578125
1.171875
1.1474609375
1.142578125
1.1328125
1.11328125
1.11328125
1.09375
1.083984375
1.083984375
1.0595703125
1.0546875
1.064453125
1.0400390625
1.0302734375
1.0302734375
1.0205078125
1.015625
1.005859375
1.005859375
1.0107421875
1.005859375
1.005859375
1.0107421875
1.0009765625
1.005859375
1.0205078125
1.005859375
1.0205078125
1.03515625
1.03515625
1.0595703125
1.0888671875
1.1376953125
1.2158203125
1.3037109375
1.4013671875
1.494140625
1.5771484375
1.66015625
1.7236328125
1.77734375
1.8310546875
1.865234375
1.89453125
1.9287109375
1.9384765625
1.9482421875
1.962890625
1.9482421875
1.9482421875
1.943359375
1.9091796875
1.89453125
1.85546875
1.81640625
1.7919921875
1.7431640625
1.708984375
1.66015625
1.611328125
1.572265625
1.5478515625
1.4990234375
1.4794921875
1.4599609375
1.42578125
1.40625
1.3818359375
1.3525390625
1.337890625
1.30859375
1.279296875
1.2548828125
1.2255859375
1.2158203125
1.2109375
1.1767578125
1.162109375
1.15234375
1.123046875
1.11328125
1.0986328125
1.083984375
1.0791015625
1.0595703125
1.0498046875
1.0498046875
1.025390625
1.025390625
1.03515625
1.0107421875
1.0107421875
1.0107421875
0.99609375
1.0009765625
0.986328125
0.9814453125
0.99609375
0.9814453125
0.9912109375
0.99609375
0.986328125
0.99609375
1.0009765625
1.0009765625
1.025390625
1.044921875
1.083984375
1.1669921875
1.2353515625
1.3427734375
1.4501953125
1.533203125
1.630859375
1.708984375
1.7626953125
1.826171875
1.865234375
1.89453125
1.93359375
1.9384765625
1.9580078125
1.962890625
1.953125
1.9482421875
1.9482421875
1.9189453125
1.8994140625
1.8701171875
1.8310546875
1.796875
1.7529296875
1.7041015625
1.66015625
1.611328125
1.5673828125
1.5380859375
1.494140625
1.4697265625
1.4453125
1.40625
1.3916015625
1.3671875
1.337890625
1.30859375
1.279296875
1.2646484375
1.2548828125
1.2109375
1.19140625
1.181640625
1.1474609375
1.1328125
1.123046875
1.09375
1.0791015625
1.064453125
1.044921875
1.025390625
1.0107421875
1.0009765625
0.9912109375
0.9814453125
0.9716796875
0.9765625
0.9619140625
0.966796875
0.966796875
0.9619140625
0.9765625
0.9716796875
0.9716796875
0.986328125
0.9716796875
0.9765625
0.9814453125
0.9716796875
0.9814453125
0.986328125
0.9814453125
0.99609375
0.99609375
1.0009765625
1.0302734375
1.0498046875
1.0986328125
1.1865234375
1.259765625
1.357421875
1.46484375
1.5478515625
1.640625
1.7041015625
1.7626953125
1.826171875
1.865234375
1.89453125
1.923828125
1.9287109375
1.9482421875
1.9580078125
1.943359375
1.943359375
1.93359375
1.9091796875
1.8896484375
1.85546875
1.8212890625
1.7919921875
1.73828125
1.7041015625
1.6748046875
1.6162109375
1.58203125
1.54296875
1.494140625
1.4599609375
1.4306640625
1.3916015625
1.3671875
1.337890625
1.3134765625
1.298828125
1.259765625
1.240234375
1.2255859375
1.19140625
1.1669921875
1.1572265625
1.1279296875
1.1083984375
1.0986328125
1.07421875
1.0546875
1.044921875
1.0205078125
1.0205078125
1.0009765625
1.0009765625
1.005859375
0.986328125
0.986328125
0.9912109375
0.9765625
0.986328125
0.9814453125
0.9765625
0.9912109375
0.9765625
0.9814453125
0.9814453125
0.9716796875
0.9814453125
0.9814453125
0.9765625
0.9814453125
0.9814453125
0.986328125
1.0009765625
0.99609375
1.005859375
1.0302734375
1.0302734375
1.0595703125
1.103515625
1.15234375
1.23046875
1.3232421875
1.40625
1.494140625
1.572265625
1.640625
1.7138671875
1.748046875
1.8017578125
1.8408203125
1.85546875
1.8798828125
1.884765625
1.8896484375
1.8896484375
1.8798828125
1.85546875
1.8408203125
1.806640625
1.7724609375
1.748046875
1.6943359375
1.6650390625
1.6259765625
1.5771484375
1.54296875
1.5087890625
1.4697265625
1.4453125
1.4111328125
1.3818359375
1.3623046875
1.328125
1.3037109375
1.2841796875
1.2548828125
1.23046875
1.2060546875
1.181640625
1.171875
1.142578125
1.1279296875
1.123046875
1.103515625
1.0888671875
1.083984375
1.0693359375
1.064453125
1.0595703125
1.0498046875
1.0498046875
1.0498046875
1.03515625
1.0400390625
1.025390625
1.025390625
1.03515625
1.0205078125
1.0205078125
1.0302734375
1.0205078125
1.025390625
1.025390625
1.015625
1.0205078125
1.0205078125
1.0205078125
1.015625
1.015625
1.0107421875
1.015625
1.015625
1.0400390625
1.083984375
1.1181640625
1.181640625
1.26953125
1.3525390625
1.4501953125
1.5283203125
1.6064453125
1.6845703125
1.728515625
1.7822265625
1.8310546875
1.8505859375
1.8896484375
1.904296875
1.904296875
1.9140625
1.8994140625
1.884765625
1.8798828125
1.8408203125
1.806640625
1.7724609375
1.728515625
1.69921875
1.6552734375
1.611328125
1.58203125
1.5478515625
1.5087890625
1.4794921875
1.4501953125
1.4208984375
1.4013671875
1.3671875
1.34765625
1.337890625
1.3037109375
1.2890625
1.2744140625
1.25
1.23046875
1.201171875
1.1767578125
1.162109375
1.142578125
1.123046875
1.1083984375
1.0888671875
1.0791015625
1.0693359375
1.0546875
1.044921875
1.0498046875
1.0400390625
1.03515625
1.03515625
1.0302734375
1.0400390625
1.025390625
1.025390625
1.03515625
1.0205078125
1.03515625
1.044921875
1.0302734375
1.0400390625
1.0400390625
1.03515625
1.0400390625
1.0302734375
1.025390625
1.0400390625
1.03515625
1.0595703125
1.0986328125
1.142578125
1.220703125
1.30859375
1.396484375
1.494140625
1.5771484375
1.650390625
1.71875
1.7626953125
1.81640625
1.8701171875
1.8798828125
1.9091796875
1.9287109375
1.93359375
1.953125
1.9384765625
1.9384765625
1.923828125
1.8896484375
1.85546875
1.8212890625
1.77734375
1.748046875
1.71875
1.6748046875
1.630859375
1.6015625
1.5625
1.533203125
1.4990234375
1.4697265625
1.455078125
1.4111328125
1.396484375
1.3818359375
1.34765625
1.3330078125
1.3134765625
1.279296875
1.2646484375
1.2451171875
1.2255859375
1.1962890625
1.1669921875
1.142578125
1.1279296875
1.0986328125
1.0791015625
1.07421875
1.0595703125
1.0498046875
1.044921875
1.0302734375
1.025390625
1.0205078125
1.015625
1.0205078125
1.0009765625
1.005859375
1.0205078125
1.0009765625
1.0107421875
1.0107421875
1.005859375
1.0205078125
1.005859375
1.005859375
1.0205078125
1.005859375
1.0107421875
1.025390625
1.0205078125
1.03515625
1.07421875
1.09375
1.15234375
1.2353515625
1.3232421875
1.416015625
1.50390625
1.5869140625
1.669921875
1.71875
1.77734375
1.8359375
1.8603515625
1.8994140625
1.9189453125
1.9287109375
1.93359375
1.9384765625
1.9287109375
1.923828125
1.8994140625
1.875
1.8603515625
1.8212890625
1.7822265625
1.73828125
1.69921875
1.6552734375
1.611328125
1.5771484375
1.5478515625
1.5087890625
1.4697265625
1.4501953125
1.4111328125
1.396484375
1.38671875
1.34765625
1.328125
1.318359375
1.2890625
1.2744140625
1.25
1.2255859375
1.2158203125
1.181640625
1.1572265625
1.142578125
1.11328125
1.11328125
1.1083984375
1.0791015625
1.07421875
1.0693359375
1.0498046875
1.0400390625
1.0302734375
1.0205078125
1.0107421875
1.0009765625
0.99609375
1.005859375
0.986328125
0.9814453125
0.986328125
0.9814453125
0.9912109375
0.9912109375
0.9814453125
0.986328125
0.9814453125
0.9716796875
0.986328125
0.9716796875
0.986328125
1.005859375
1.005859375
1.0205078125
1.0498046875
1.1083984375
1.19140625
1.2841796875
1.3720703125
1.4697265625
1.5478515625
1.6259765625
1.6943359375
1.7431640625
1.8017578125
1.845703125
1.865234375
1.8994140625
1.9140625
1.923828125
1.93359375
1.9189453125
1.9140625
1.9140625
1.875
1.85546875
1.8310546875
1.7724609375
1.7236328125
1.689453125
1.640625
1.6064453125
1.552734375
1.513671875
1.4892578125
1.4404296875
1.40625
1.38671875
1.34765625
1.3232421875
1.30859375
1.2744140625
1.26953125
1.2451171875
1.220703125
1.2109375
1.1767578125
1.1572265625
1.1572265625
1.123046875
1.123046875
1.11328125
1.083984375
1.0791015625
1.0595703125
1.0498046875
1.0546875
1.0302734375
1.0205078125
1.025390625
1.005859375
1.005859375
1.005859375
0.9912109375
0.99609375
1.005859375
0.9912109375
0.99609375
1.0009765625
0.99609375
1.0009765625
0.986328125
0.9814453125
0.9912109375
0.9814453125
0.9765625
1.0009765625
0.99609375
1.0107421875
1.025390625
1.03515625
1.0693359375
1.1279296875
1.201171875
1.2841796875
1.376953125
1.4697265625
1.552734375
1.6162109375
1.6796875
1.7333984375
1.77734375
1.806640625
1.8359375
1.85546875
1.865234375
1.8701171875
1.8701171875
1.865234375
1.8505859375
1.826171875
1.8017578125
1.767578125
1.728515625
1.6845703125
1.6455078125
1.6015625
1.5576171875
1.513671875
1.4697265625
1.4306640625
1.396484375
1.376953125
1.337890625
1.328125
1.3134765625
1.279296875
1.26953125
1.2548828125
1.2353515625
1.2353515625
1.2109375
1.201171875
1.201171875
1.1669921875
1.162109375
1.1572265625
1.1328125
1.123046875
1.123046875
1.103515625
1.0986328125
1.09375
1.0791015625
1.083984375
1.064453125
1.0693359375
1.0693359375
1.044921875
1.0498046875
1.0498046875
1.0400390625
1.044921875
1.03515625
1.0302734375
1.03515625
1.0302734375
1.03515625
1.0498046875
1.03515625
1.044921875
1.0546875
1.044921875
1.0595703125
1.0791015625
1.0986328125
1.1474609375
1.2060546875
1.2890625
1.3818359375
1.46484375
1.5576171875
1.6357421875
1.689453125
1.7333984375
1.77734375
1.8115234375
1.8408203125
1.8603515625
1.865234375
1.875
1.875
1.865234375
1.8505859375
1.826171875
1.8017578125
1.787109375
1.748046875
1.71875
1.6796875
1.6357421875
1.6015625
1.5673828125
1.5234375
1.494140625
1.455078125
1.42578125
1.4111328125
1.3720703125
1.3525390625
1.337890625
1.30859375
1.2939453125
1.2744140625
1.2548828125
1.240234375
1.2158203125
1.1962890625
1.19140625
1.1669921875
1.162109375
1.162109375
1.1328125
1.123046875
1.1181640625
1.0986328125
1.0986328125
1.0791015625
1.0693359375
1.0791015625
1.0498046875
1.044921875
1.0546875
1.03515625
1.03515625
1.025390625
1.0107421875
1.015625
1.005859375
1.005859375
1.0009765625
1.0009765625
0.99609375
1.0107421875
1.0009765625
1.015625
1.03515625
1.0302734375
1.0595703125
1.1083984375
1.162109375
1.2548828125
1.3330078125
1.4208984375
1.513671875
1.591796875
1.669921875
1.73828125
1.7822265625
1.826171875
1.865234375
1.8798828125
1.8994140625
1.9091796875
1.9189453125
1.9287109375
1.9189453125
1.8994140625
1.8896484375
1.85546875
1.8359375
1.806640625
1.7578125
1.7138671875
1.6748046875
1.6259765625
1.58203125
1.5380859375
1.50390625
1.474609375
1.42578125
1.3916015625
1.3720703125
1.3330078125
1.3134765625
1.298828125
1.2646484375
1.240234375
1.2109375
1.1865234375
1.171875
1.15234375
1.1328125
1.11328125
1.0888671875
1.07421875
1.0595703125
1.0400390625
1.0400390625
1.044921875
1.025390625
1.0205078125
1.0205078125
1.0107421875
1.0205078125
1.0107421875
1.0107421875
1.0205078125
1.005859375
1.0107421875
1.0205078125
1.005859375
1.0107421875
1.0107421875
1.005859375
1.0205078125
1.005859375
1.005859375
1.0009765625
0.99609375
0.99609375
1.0107421875
1.0107421875
1.03515625
1.07421875
1.11328125
1.19140625
1.2744140625
1.3671875
1.4697265625
1.5380859375
1.611328125
1.689453125
1.7333984375
1.7919921875
1.8310546875
1.8505859375
1.8798828125
1.884765625
1.8896484375
1.89453125
1.875
1.865234375
1.8408203125
1.806640625
1.77734375
1.7431640625
1.69921875
1.650390625
1.611328125
1.5625
1.5283203125
1.4794921875
1.435546875
1.4111328125
1.376953125
1.3525390625
1.328125
1.2939453125
1.2744140625
1.2548828125
1.2255859375
1.201171875
1.19140625
1.1767578125
1.1669921875
1.15234375
1.1328125
1.1328125
1.1083984375
1.09375
1.07421875
1.0595703125
1.0546875
1.0546875
1.0400390625
1.044921875
1.03515625
1.0302734375
1.0400390625
1.0205078125
1.025390625
1.03515625
1.0205078125
1.025390625
1.0302734375
1.0205078125
1.0302734375
1.0400390625
1.0302734375
1.0302734375
1.025390625
1.025390625
1.025390625
1.0205078125
1.025390625
1.0498046875
1.083984375
1.15234375
1.2451171875
1.3330078125
1.42578125
1.5234375
1.6064453125
1.6943359375
1.7529296875
1.8017578125
1.8408203125
1.865234375
1.8896484375
1.9091796875
1.9189453125
1.9189453125
1.9189453125
1.9091796875
1.8994140625
1.875
1.8505859375
1.8359375
1.7919921875
1.748046875
1.708984375
1.66015625
1.6162109375
1.572265625
1.533203125
1.4990234375
1.4599609375
1.4306640625
1.4111328125
1.3720703125
1.34765625
1.328125
1.2939453125
1.2841796875
1.2646484375
1.240234375
1.220703125
1.2060546875
1.181640625
1.1767578125
1.15234375
1.1376953125
1.1328125
1.11328125
1.1083984375
1.0986328125
1.0791015625
1.0595703125
1.0498046875
1.044921875
1.03515625
1.0302734375
1.0205078125
1.0205078125
1.0205078125
1.0107421875
1.025390625
1.005859375
1.0107421875
1.025390625
1.0107421875
1.005859375
1.005859375
1.0009765625
0.99609375
1.0009765625
1.005859375
1.015625
1.015625
1.0302734375
1.0595703125
1.103515625
1.1767578125
1.25
1.3427734375
1.455078125
1.5478515625
1.6259765625
1.7041015625
1.7578125
1.8212890625
1.8603515625
1.8896484375
1.923828125
1.953125
1.9580078125
1.9677734375
1.962890625
1.953125
1.9482421875
1.9189453125
1.8994140625
1.85546875
1.806640625
1.7626953125
1.7138671875
1.66015625
1.6259765625
1.58203125
1.5380859375
1.4990234375
1.4501953125
1.4111328125
1.3818359375
1.3525390625
1.3232421875
1.30859375
1.2744140625
1.2548828125
1.25
1.2158203125
1.2060546875
1.19140625
1.1669921875
1.1572265625
1.1376953125
1.123046875
1.123046875
1.09375
1.09375
1.0888671875
1.064453125
1.064453125
1.044921875
1.0302734375
1.025390625
1.015625
1.0107421875
1.0107421875
0.99609375
0.986328125
0.99609375
0.986328125
0.9912109375
0.99609375
0.9912109375
1.0009765625
1.0009765625
0.99609375
1.0009765625
1.005859375
1.005859375
1.0205078125
1.0107421875
1.0205078125
1.03515625
1.0400390625
1.0791015625
1.1279296875
1.1767578125
1.2646484375
1.3525390625
1.4453125
1.533203125
1.611328125
1.6748046875
1.7529296875
1.7919921875
1.8359375
1.875
1.89453125
1.9140625
1.9287109375
1.93359375
1.9384765625
1.9287109375
1.9189453125
1.904296875
1.8603515625
1.8408203125
1.8115234375
1.7578125
1.7236328125
1.6748046875
1.62109375
1.5869140625
1.5380859375
1.4990234375
1.46484375
1.416015625
1.38671875
1.3671875
1.3232421875
1.3037109375
1.2841796875
1.2451171875
1.23046875
1.2109375
1.1865234375
1.1767578125
1.1572265625
1.142578125
1.1376953125
1.1083984375
1.0888671875
1.0791015625
1.0595703125
1.0498046875
1.044921875
1.0400390625
1.0546875
1.0400390625
1.044921875
1.0546875
1.03515625
1.03515625
1.0302734375
1.0205078125
1.015625
1.015625
1.005859375
1.0107421875
1.015625
1.005859375
1.025390625
1.025390625
1.025390625
1.03515625
1.0205078125
1.0302734375
1.0498046875
1.03515625
1.0400390625
1.0546875
1.0595703125
1.083984375
1.1181640625
1.1669921875
1.25
1.3232421875
1.40625
1.50390625
1.572265625
1.6455078125
1.69921875
1.7529296875
1.806640625
1.8408203125
1.8603515625
1.8798828125
1.8896484375
1.8994140625
1.9091796875
1.89453125
1.884765625
1.8701171875
1.826171875
1.806640625
1.7724609375
1.7236328125
1.6845703125
1.640625
1.5966796875
1.552734375
1.4990234375
1.455078125
1.42578125
1.376953125
1.34765625
1.328125
1.2939453125
1.2646484375
1.2451171875
1.2255859375
1.2060546875
1.19140625
1.1767578125
1.171875
1.1474609375
1.142578125
1.1328125
1.1083984375
1.11328125
1.1083984375
1.09375
1.0791015625
1.07421875
1.064453125
1.07421875
1.0546875
1.0498046875
1.0546875
1.0400390625
1.0302734375
1.0302734375
1.0205078125
1.0205078125
1.015625
1.0107421875
1.005859375
1.005859375
1.0009765625
1.005859375
1.005859375
1.0009765625
0.99609375
1.0009765625
1.0009765625
1.015625
1.0205078125
1.0400390625
1.0595703125
1.07421875
1.11328125
1.15234375
1.2255859375
1.318359375
1.3916015625
1.4794921875
1.572265625
1.630859375
1.6943359375
1.7431640625
1.77734375
1.8115234375
1.8359375
1.85546875
1.875
1.875
1.875
1.875
1.845703125
1.81640625
1.7919921875
1.7529296875
1.728515625
1.6845703125
1.640625
1.611328125
1.5576171875
1.5283203125
1.4990234375
1.4501953125
1.4208984375
1.396484375
1.357421875
1.34765625
1.3134765625
1.2890625
1.2744140625
1.25
1.2255859375
1.2158203125
1.19140625
1.181640625
1.1865234375
1.15234375
1.15234375
1.1474609375
1.1279296875
1.1279296875
1.1181640625
1.103515625
1.1083984375
1.0888671875
1.0888671875
1.0986328125
1.07421875
1.0693359375
1.0791015625
1.0595703125
1.0595703125
1.064453125
1.0595703125
1.0498046875
1.0498046875
1.03515625
1.044921875
1.03515625
1.03515625
1.03515625
1.0302734375
1.0400390625
1.0546875
1.0498046875
1.064453125
1.0693359375
1.07421875
1.1083984375
1.1279296875
1.181640625
1.26953125
1.3427734375
1.435546875
1.5283203125
1.6015625
1.6845703125
1.73828125
1.7919921875
1.8408203125
1.8701171875
1.89453125
1.9140625
1.9189453125
1.923828125
1.9189453125
1.9091796875
1.884765625
1.875
1.845703125
1.8310546875
1.787109375
1.748046875
1.71875
1.669921875
1.6357421875
1.6064453125
1.552734375
1.5234375
1.494140625
1.4453125
1.4208984375
1.3916015625
1.357421875
1.3427734375
1.3134765625
1.2890625
1.2744140625
1.240234375
1.2255859375
1.201171875
1.181640625
1.1572265625
1.1572265625
1.1328125
1.1328125
1.123046875
1.1083984375
1.0986328125
1.0791015625
1.0791015625
1.0888671875
1.064453125
1.0595703125
1.064453125
1.0498046875
1.0546875
1.0546875
1.0400390625
1.0498046875
1.0400390625
1.044921875
1.0498046875
1.03515625
1.03515625
1.044921875
1.0302734375
1.0302734375
1.0400390625
1.0302734375
1.0400390625
1.0400390625
1.044921875
1.0546875
1.0595703125
1.07421875
1.1181640625
1.15234375
1.2353515625
1.3330078125
1.416015625
1.513671875
1.6015625
1.6748046875
1.7333984375
1.787109375
1.8310546875
1.875
1.8896484375
1.9140625
1.923828125
1.923828125
1.9189453125
1.923828125
1.9091796875
1.89453125
1.8701171875
1.845703125
1.81640625
1.7724609375
1.7333984375
1.708984375
1.6552734375
1.6162109375
1.5771484375
1.533203125
1.494140625
1.46484375
1.42578125
1.40625
1.3671875
1.3427734375
1.3330078125
1.2939453125
1.2744140625
1.2451171875
1.2109375
1.1865234375
1.1669921875
1.15234375
1.1376953125
1.1279296875
1.1083984375
1.103515625
1.083984375
1.0791015625
1.0791015625
1.0595703125
1.0498046875
1.0498046875
1.03515625
1.0302734375
1.025390625
1.015625
1.015625
1.015625
1.0107421875
1.0107421875
1.005859375
1.015625
1.03515625
1.0205078125
1.025390625
1.015625
1.005859375
1.0107421875
1.015625
1.0107421875
1.025390625
1.025390625
1.03515625
1.0546875
1.0498046875
1.0693359375
1.1083984375
1.1474609375
1.2158203125
1.298828125
1.3818359375
1.4794921875
1.5478515625
1.630859375
1.7138671875
1.7578125
1.806640625
1.8505859375
1.8701171875
1.89453125
1.9140625
1.9091796875
1.9091796875
1.904296875
1.8798828125
1.865234375
1.8310546875
1.796875
1.7724609375
1.7236328125
1.6845703125
1.6455078125
1.5966796875
1.5625
1.513671875
1.4697265625
1.42578125
1.396484375
1.3671875
1.3427734375
1.3134765625
1.2841796875
1.279296875
1.2451171875
1.220703125
1.2158203125
1.19140625
1.181640625
1.1669921875
1.15234375
1.1376953125
1.1181640625
1.103515625
1.1083984375
1.083984375
1.0888671875
1.0888671875
1.064453125
1.0693359375
1.064453125
1.0546875
1.064453125
1.0498046875
1.044921875
1.0595703125
1.03515625
1.0400390625
1.0400390625
1.025390625
1.0205078125
1.025390625
1.0205078125
1.0205078125
1.015625
1.015625
1.0205078125
1.0205078125
1.025390625
1.0400390625
1.03515625
1.044921875
1.0546875
1.064453125
1.0986328125
1.1474609375
1.201171875
1.2890625
1.3720703125
1.4501953125
1.533203125
1.5966796875
1.6650390625
1.7333984375
1.7626953125
1.806640625
1.826171875
1.8359375
1.85546875
1.85546875
1.8505859375
1.85546875
1.8359375
1.806640625
1.7822265625
1.7431640625
1.7041015625
1.6748046875
1.6259765625
1.591796875
1.5478515625
1.50390625
1.474609375
1.4404296875
1.4111328125
1.396484375
1.3525390625
1.328125
1.3134765625
1.279296875
1.26953125
1.259765625
1.2255859375
1.220703125
1.2060546875
1.1865234375
1.171875
1.1474609375
1.1474609375
1.15234375
1.123046875
1.11328125
1.11328125
1.0986328125
1.0986328125
1.0888671875
1.07421875
1.0791015625
1.0791015625
1.07421875
1.0791015625
1.0693359375
1.0693359375
1.083984375
1.064453125
1.0791015625
1.0791015625
1.064453125
1.07421875
1.07421875
1.0693359375
1.07421875
1.064453125
1.0595703125
1.0693359375
1.0595703125
1.0595703125
1.064453125
1.064453125
1.083984375
1.1083984375
1.1572265625
1.23046875
1.30859375
1.396484375
1.494140625
1.5576171875
1.6259765625
1.689453125
1.7333984375
1.7724609375
1.81640625
1.8408203125
1.865234375
1.8798828125
1.884765625
1.8798828125
1.8701171875
1.8505859375
1.8310546875
1.8017578125
1.7626953125
1.7236328125
1.689453125
1.6455078125
1.6015625
1.5625
1.5185546875
1.484375
1.4453125
1.416015625
1.38671875
1.357421875
1.3330078125
1.3134765625
1.2890625
1.26953125
1.2548828125
1.2353515625
1.2158203125
1.201171875
1.19140625
1.1767578125
1.1669921875
1.171875
1.15234375
1.1474609375
1.1376953125
1.1181640625
1.1181640625
1.123046875
1.103515625
1.0986328125
1.09375
1.0888671875
1.0986328125
1.083984375
1.0888671875
1.0986328125
1.083984375
1.083984375
1.0791015625
1.0693359375
1.064453125
1.0595703125
1.0546875
1.0546875
1.0546875
1.0498046875
1.0595703125
1.0498046875
1.0498046875
1.0546875
1.0595703125
1.0693359375
1.09375
1.1279296875
1.2060546875
1.2939453125
1.3818359375
1.4892578125
1.5771484375
1.66015625
1.73828125
1.787109375
1.845703125
1.89453125
1.9189453125
1.943359375
1.9580078125
1.9677734375
1.9775390625
1.97265625
1.9580078125
1.943359375
1.9189453125
1.8896484375
1.85546875
1.81640625
1.7724609375
1.7333984375
1.689453125
1.6455078125
1.6015625
1.5625
1.5185546875
1.4794921875
1.4404296875
1.4111328125
1.3818359375
1.3525390625
1.328125
1.298828125
1.279296875
1.2646484375
1.240234375
1.2255859375
1.2060546875
1.181640625
1.1669921875
1.1474609375
1.1328125
1.123046875
1.103515625
1.0986328125
1.083984375
1.0693359375
1.0595703125
1.0595703125
1.0400390625
1.0400390625
1.03515625
1.0302734375
1.0400390625
1.025390625
1.0302734375
1.0400390625
1.025390625
1.0107421875
1.0205078125
1.015625
1.025390625
1.0205078125
1.0205078125
1.0302734375
1.0205078125
1.025390625
1.0400390625
1.0302734375
1.044921875
1.0595703125
1.064453125
1.09375
1.1474609375
1.2109375
1.2890625
1.376953125
1.46484375
1.5673828125
1.630859375
1.7138671875
1.77734375
1.8212890625
1.865234375
1.8994140625
1.9189453125
1.943359375
1.9482421875
1.953125
1.9580078125
1.93359375
1.923828125
1.904296875
1.8701171875
1.845703125
1.806640625
1.767578125
1.7236328125
1.6748046875
1.6357421875
1.5869140625
1.5380859375
1.4990234375
1.455078125
1.4111328125
1.376953125
1.3525390625
1.318359375
1.2890625
1.259765625
1.2353515625
1.2060546875
1.181640625
1.162109375
1.142578125
1.1181640625
1.103515625
1.0986328125
1.0791015625
1.0693359375
1.07421875
1.0546875
1.0400390625
1.0302734375
1.025390625
1.025390625
1.015625
1.005859375
0.99609375
0.986328125
0.9765625
0.9716796875
0.9716796875
0.966796875
0.9619140625
0.9619140625
0.9814453125
0.986328125
0.986328125
1.0009765625
0.9912109375
1.005859375
1.0205078125
1.0107421875
1.025390625
1.03515625
1.0302734375
1.0498046875
1.0546875
1.07421875
1.11328125
1.1572265625
1.2255859375
1.3232421875
1.4013671875
1.494140625
1.5771484375
1.640625
1.69921875
1.7431640625
1.77734375
1.8310546875
1.85546875
1.8798828125
1.9091796875
1.8994140625
1.9140625
1.9140625
1.8896484375
1.8798828125
1.8505859375
1.81640625
1.787109375
1.7431640625
1.7041015625
1.669921875
1.611328125
1.5771484375
1.54296875
1.4892578125
1.455078125
1.4306640625
1.38671875
1.3623046875
1.337890625
1.30859375
1.2890625
1.259765625
1.2353515625
1.23046875
1.201171875
1.19140625
1.1865234375
1.1572265625
1.142578125
1.1376953125
1.1181640625
1.11328125
1.0986328125
1.083984375
1.0888671875
1.0693359375
1.0546875
1.0595703125
1.0400390625
1.03515625
1.0400390625
1.0205078125
1.0205078125
1.025390625
1.0107421875
1.0205078125
1.0205078125
1.025390625
1.03515625
1.0205078125
1.0302734375
1.0400390625
1.025390625
1.0302734375
1.0400390625
1.03515625
1.044921875
1.0498046875
1.044921875
1.07421875
1.0888671875
1.1328125
1.1962890625
1.259765625
1.3427734375
1.42578125
1.4990234375
1.5771484375
1.650390625
1.7041015625
1.7626953125
1.796875
1.826171875
1.8603515625
1.865234375
1.875
1.8896484375
1.875
1.875
1.85546875
1.8310546875
1.806640625
1.767578125
1.7333984375
1.6943359375
1.6455078125
1.6064453125
1.572265625
1.5185546875
1.484375
1.455078125
1.40625
1.3671875
1.3427734375
1.30859375
1.2841796875
1.2646484375
1.2451171875
1.240234375
1.2109375
1.201171875
1.1962890625
1.1669921875
1.162109375
1.15234375
1.1376953125
1.123046875
1.11328125
1.0986328125
1.0986328125
1.07421875
1.07421875
1.0791015625
1.0595703125
1.064453125
1.0595703125
1.044921875
1.0498046875
1.03515625
1.025390625
1.03515625
1.025390625
1.025390625
1.025390625
1.015625
1.0205078125
1.0302734375
1.0205078125
1.025390625
1.0400390625
1.03515625
1.0400390625
1.0498046875
1.0595703125
1.0888671875
1.1083984375
1.162109375
1.25
1.328125
1.435546875
1.5380859375
1.611328125
1.6796875
1.7333984375
1.7919921875
1.8359375
1.8701171875
1.8896484375
1.923828125
1.9287109375
1.943359375
1.9580078125
1.943359375
1.9384765625
1.9287109375
1.8994140625
1.8798828125
1.8359375
1.796875
1.767578125
1.7236328125
1.6845703125
1.640625
1.591796875
1.5478515625
1.5087890625
1.4697265625
1.4453125
1.416015625
1.3916015625
1.3720703125
1.337890625
1.30859375
1.298828125
1.26953125
1.2451171875
1.23046875
1.2060546875
1.19140625
1.181640625
1.1572265625
1.142578125
1.1279296875
1.11328125
1.1083984375
1.083984375
1.0791015625
1.083984375
1.0595703125
1.0595703125
1.064453125
1.044921875
1.0302734375
1.0205078125
1.0107421875
1.0009765625
0.99609375
0.99609375
0.99609375
0.9814453125
0.9814453125
0.99609375
0.9814453125
0.9912109375
1.005859375
0.99609375
1.005859375
1.005859375
1.015625
1.03515625
1.0595703125
1.09375
1.1669921875
1.2451171875
1.3525390625
1.455078125
1.54296875
1.630859375
1.708984375
1.7626953125
1.8310546875
1.865234375
1.89453125
1.9287109375
1.9384765625
1.9580078125
1.962890625
1.953125
1.953125
1.9482421875
1.923828125
1.9091796875
1.875
1.8408203125
1.8115234375
1.7578125
1.7236328125
1.6943359375
1.6357421875
1.6015625
1.5673828125
1.5185546875
1.4892578125
1.46484375
1.4208984375
1.4013671875
1.3671875
1.3427734375
1.3037109375
1.279296875
1.2548828125
1.2353515625
1.2060546875
1.181640625
1.162109375
1.1376953125
1.1181640625
1.103515625
1.0791015625
1.064453125
1.044921875
1.03515625
1.025390625
1.005859375
0.9912109375
0.9912109375
0.9814453125
0.986328125
0.9814453125
0.9765625
0.986328125
0.9765625
0.9814453125
0.9912109375
0.9814453125
0.9814453125
0.9912109375
0.9765625
0.9765625
0.9814453125
0.9765625
0.9814453125
0.9912109375
0.9814453125
0.99609375
1.0009765625
1.015625
1.0498046875
1.07421875
1.142578125
1.2353515625
1.3232421875
1.42578125
1.5234375
1.6064453125
1.6845703125
1.7333984375
1.7919921875
1.8505859375
1.8798828125
1.9091796875
1.923828125
1.9287109375
1.9384765625
1.943359375
1.93359375
1.9189453125
1.904296875
1.875
1.8603515625
1.8115234375
1.77734375
1.748046875
1.6943359375
1.66015625
1.62109375
1.572265625
1.5380859375
1.4990234375
1.4599609375
1.4306640625
1.396484375
1.3671875
1.3525390625
1.3134765625
1.2939453125
1.279296875
1.240234375
1.2158203125
1.201171875
1.171875
1.1572265625
1.1376953125
1.11328125
1.1083984375
1.083984375
1.0693359375
1.07421875
1.0498046875
1.0400390625
1.044921875
1.025390625
1.0205078125
1.0205078125
1.005859375
1.0107421875
1.0107421875
1.0009765625
1.0107421875
1.0009765625
1.0009765625
1.015625
0.99609375
1.0009765625
1.005859375
0.9912109375
1.0009765625
1.0009765625
0.99609375
1.0009765625
0.99609375
1.0009765625
1.0205078125
1.0107421875
1.015625
1.044921875
1.0791015625
1.1474609375
1.220703125
1.3037109375
1.4013671875
1.494140625
1.5625
1.6455078125
1.6943359375
1.7431640625
1.7822265625
1.806640625
1.8310546875
1.845703125
1.8505859375
1.85546875
1.8505859375
1.8310546875
1.81640625
1.787109375
1.7626953125
1.7431640625
1.6943359375
1.669921875
1.6357421875
1.58203125
1.552734375
1.5185546875
1.474609375
1.4404296875
1.4111328125
1.376953125
1.357421875
1.328125
1.3037109375
1.2890625
1.2548828125
1.2451171875
1.2255859375
1.1962890625
1.1865234375
1.1669921875
1.15234375
1.1376953125
1.123046875
1.11328125
1.1083984375
1.083984375
1.083984375
1.0791015625
1.064453125
1.064453125
1.0546875
1.044921875
1.044921875
1.03515625
1.03515625
1.0498046875
1.025390625
1.03515625
1.03515625
1.0205078125
1.0302734375
1.0400390625
1.0302734375
1.0302734375
1.03515625
1.0302734375
1.03515625
1.03515625
1.03515625
1.0546875
1.0400390625
1.0498046875
1.0791015625
1.09375
1.1572265625
1.2353515625
1.318359375
1.40625
1.4990234375
1.58203125
1.6552734375
1.708984375
1.767578125
1.8212890625
1.8408203125
1.865234375
1.8896484375
1.89453125
1.8994140625
1.8896484375
1.8798828125
1.8701171875
1.8359375
1.8017578125
1.77734375
1.728515625
1.6796875
1.6357421875
1.591796875
1.54296875
1.513671875
1.46484375
1.4501953125
1.4111328125
1.38671875
1.3720703125
1.3330078125
1.318359375
1.30859375
1.2744140625
1.259765625
1.25
1.220703125
1.2158203125
1.201171875
1.1767578125
1.171875
1.15234375
1.1376953125
1.1328125
1.1083984375
1.0986328125
1.0986328125
1.0791015625
1.07421875
1.07421875
1.0595703125
1.0595703125
1.0546875
1.0498046875
1.0498046875
1.044921875
1.0400390625
1.0546875
1.03515625
1.0400390625
1.0400390625
1.0302734375
1.0205078125
1.0205078125
1.015625
1.0205078125
1.015625
1.0107421875
1.015625
1.015625
1.025390625
1.044921875
1.07421875
1.123046875
1.2060546875
1.298828125
1.40625
1.4892578125
1.5869140625
1.6796875
1.73828125
1.8017578125
1.8603515625
1.8896484375
1.9287109375
1.953125
1.962890625
1.9677734375
1.97265625
1.962890625
1.9677734375
1.9384765625
1.9091796875
1.89453125
1.8505859375
1.81640625
1.77734375
1.728515625
1.69921875
1.66015625
1.611328125
1.58203125
1.5380859375
1.4990234375
1.474609375
1.435546875
1.4013671875
1.376953125
1.3427734375
1.318359375
1.3037109375
1.2744140625
1.25
1.2255859375
1.201171875
1.1865234375
1.162109375
1.15234375
1.142578125
1.1181640625
1.09375
1.0791015625
1.0595703125
1.044921875
1.044921875
1.0302734375
1.03515625
1.0302734375
1.0205078125
1.0205078125
1.005859375
1.0107421875
1.015625
1.005859375
1.0107421875
1.0205078125
1.005859375
1.0107421875
1.0107421875
1.005859375
1.0107421875
1.0107421875
1.0107421875
1.025390625
1.0107421875
1.0205078125
1.03515625
1.0302734375
1.044921875
1.0546875
1.0888671875
1.15234375
1.2451171875
1.3330078125
1.4501953125
1.5380859375
1.6259765625
1.7138671875
1.7626953125
1.8212890625
1.875
1.8994140625
1.93359375
1.943359375
1.953125
1.9677734375
1.9580078125
1.9580078125
1.953125
1.9189453125
1.8994140625
1.875
1.8310546875
1.796875
1.7578125
1.7138671875
1.669921875
1.62109375
1.5771484375
1.54296875
1.4990234375
1.4599609375
1.435546875
1.396484375
1.376953125
1.3525390625
1.3232421875
1.30859375
1.2841796875
1.259765625
1.2451171875
1.2255859375
1.2060546875
1.19140625
1.162109375
1.1474609375
1.1474609375
1.1181640625
1.11328125
1.103515625
1.0791015625
1.0693359375
1.0546875
1.03515625
1.0302734375
1.015625
1.0107421875
1.0107421875
0.99609375
1.0009765625
1.0009765625
0.9912109375
0.9912109375
0.99609375
0.9912109375
1.0009765625
1.0009765625
0.99609375
1.015625
0.99609375
0.986328125
0.9814453125
0.9765625
0.9765625
0.9912109375
0.9912109375
1.0107421875
1.0107421875
1.0302734375
1.064453125
1.09375
1.1572265625
1.25
1.328125
1.40625
1.50390625
1.58203125
1.66015625
1.71875
1.767578125
1.8212890625
1.8408203125
1.8603515625
1.8701171875
1.8701171875
1.8701171875
1.8701171875
1.85546875
1.8359375
1.806640625
1.7724609375
1.73828125
1.6943359375
1.6552734375
1.6162109375
1.5673828125
1.5283203125
1.4990234375
1.4501953125
1.42578125
1.40625
1.3671875
1.3427734375
1.3232421875
1.2939453125
1.2841796875
1.259765625
1.2353515625
1.23046875
1.1962890625
1.19140625
1.181640625
1.1572265625
1.1474609375
1.142578125
1.1181640625
1.1083984375
1.0986328125
1.0888671875
1.0888671875
1.0693359375
1.064453125
1.0546875
1.0400390625
1.0400390625
1.044921875
1.0302734375
1.0400390625
1.0400390625
1.03515625
1.03515625
1.0302734375
1.0302734375
1.0400390625
1.025390625
1.03515625
1.044921875
1.0302734375
1.0400390625
1.044921875
1.0400390625
1.0498046875
1.044921875
1.0498046875
1.0498046875
1.0400390625
1.0595703125
1.0791015625
1.0888671875
1.1328125
1.1962890625
1.25
1.337890625
1.4208984375
1.4990234375
1.572265625
1.630859375
1.689453125
1.73828125
1.7626953125
1.796875
1.8115234375
1.81640625
1.81640625
1.806640625
1.796875
1.77734375
1.7529296875
1.7236328125
1.6845703125
1.6455078125
1.6064453125
1.5673828125
1.5234375
1.484375
1.4453125
1.4111328125
1.376953125
1.3427734375
1.3134765625
1.2890625
1.2646484375
1.2451171875
1.220703125
1.2060546875
1.1865234375
1.1767578125
1.1572265625
1.15234375
1.1376953125
1.123046875
1.123046875
1.1181640625
1.1083984375
1.123046875
1.103515625
1.103515625
1.1083984375
1.0888671875
1.0791015625
1.0888671875
1.07421875
1.07421875
1.0791015625
1.0693359375
1.0693359375
1.064453125
1.064453125
1.0791015625
1.0693359375
1.0693359375
1.083984375
1.07421875
1.0888671875
1.0888671875
1.083984375
1.09375
1.0986328125
1.0986328125
1.1083984375
1.0986328125
1.1083984375
1.123046875
1.1279296875
1.1572265625
1.2060546875
1.2646484375
1.328125
1.4111328125
1.494140625
1.5771484375
1.6455078125
1.7041015625
1.7626953125
1.7919921875
1.8359375
1.8701171875
1.875
1.8896484375
1.89453125
1.884765625
1.884765625
1.8505859375
1.826171875
1.806640625
1.7626953125
1.7333984375
1.7041015625
1.650390625
1.611328125
1.5869140625
1.533203125
1.50390625
1.4697265625
1.435546875
1.4111328125
1.3818359375
1.3525390625
1.3427734375
1.3134765625
1.2939453125
1.279296875
1.25
1.2255859375
1.2060546875
1.1865234375
1.181640625
1.171875
1.162109375
1.1572265625
1.1376953125
1.1376953125
1.142578125
1.1181640625
1.11328125
1.1181640625
1.0986328125
1.09375
1.0791015625
1.064453125
1.0693359375
1.0595703125
1.0498046875
1.0595703125
1.044921875
1.0498046875
1.064453125
1.044921875
1.0546875
1.0595703125
1.044921875
1.0546875
1.0546875
1.0498046875
1.0595703125
1.0498046875
1.0595703125
1.083984375
1.0791015625
1.0986328125
1.1474609375
1.1962890625
1.2841796875
1.3720703125
1.4501953125
1.54296875
1.6162109375
1.689453125
1.7578125
1.796875
1.845703125
1.8896484375
1.904296875
1.93359375
1.943359375
1.9482421875
1.953125
1.9384765625
1.93359375
1.9189453125
1.8798828125
1.8603515625
1.826171875
1.77734375
1.7431640625
1.708984375
1.6552734375
1.6259765625
1.5869140625
1.5478515625
1.5185546875
1.4697265625
1.4404296875
1.416015625
1.376953125
1.3427734375
1.328125
1.2939453125
1.279296875
1.2646484375
1.2353515625
1.220703125
1.2060546875
1.181640625
1.162109375
1.142578125
1.1376953125
1.1328125
1.103515625
1.09375
1.09375
1.0693359375
1.064453125
1.0693359375
1.0498046875
1.044921875
1.03515625
1.0205078125
1.025390625
1.0107421875
1.015625
1.0009765625
0.99609375
0.9912109375
0.9912109375
0.9814453125
0.99609375
0.9912109375
0.9912109375
0.9912109375
0.986328125
0.9912109375
1.005859375
1.0009765625
1.0107421875
1.03515625
1.0498046875
1.09375
1.1572265625
1.2353515625
1.328125
1.4208984375
1.513671875
1.6064453125
1.6748046875
1.7333984375
1.787109375
1.8310546875
1.8701171875
1.8994140625
1.9189453125
1.9384765625
1.953125
1.9482421875
1.9580078125
1.93359375
1.923828125
1.9091796875
1.8603515625
1.8359375
1.8017578125
1.748046875
1.71875
1.6748046875
1.6259765625
1.591796875
1.552734375
1.5185546875
1.4892578125
1.4453125
1.4208984375
1.396484375
1.357421875
1.337890625
1.318359375
1.2841796875
1.2646484375
1.2451171875
1.220703125
1.2109375
1.1865234375
1.171875
1.1669921875
1.1376953125
1.1279296875
1.123046875
1.0986328125
1.0986328125
1.083984375
1.0693359375
1.0693359375
1.0498046875
1.0498046875
1.0498046875
1.025390625
1.025390625
1.0302734375
1.0107421875
1.005859375
1.005859375
0.99609375
0.99609375
1.005859375
0.99609375
1.005859375
1.0009765625
1.0009765625
1.0205078125
1.005859375
1.005859375
1.0205078125
1.015625
1.0302734375
1.044921875
1.044921875
1.0693359375
1.0986328125
1.1376953125
1.2060546875
1.2890625
1.376953125
1.455078125
1.5380859375
1.6064453125
1.6650390625
1.7138671875
1.7578125
1.7919921875
1.81640625
1.8310546875
1.845703125
1.8505859375
1.845703125
1.8408203125
1.8212890625
1.796875
1.7626953125
1.7236328125
1.689453125
1.6455078125
1.6015625
1.5576171875
1.5185546875
1.494140625
1.4501953125
1.4111328125
1.3720703125
1.3427734375
1.3134765625
1.2841796875
1.2548828125
1.2353515625
1.2109375
1.19140625
1.171875
1.1572265625
1.142578125
1.1279296875
1.11328125
1.0986328125
1.0888671875
1.07421875
1.064453125
1.0546875
1.0498046875
1.0400390625
1.03515625
1.025390625
1.025390625
1.0205078125
1.015625
1.015625
1.015625
1.015625
1.015625
1.015625
1.015625
1.015625
1.015625
1.0205078125
1.0205078125
1.0205078125
1.0205078125
1.025390625
1.025390625
1.03515625
1.03515625
1.0400390625
1.044921875
1.0546875
1.0693359375
1.0791015625
1.0986328125
1.1279296875
1.1669921875
1.2353515625
1.3232421875
1.4013671875
1.494140625
1.5869140625
1.6455078125
1.708984375
1.748046875
1.7919921875
1.8310546875
1.8505859375
1.8603515625
1.875
1.8701171875
1.8701171875
1.865234375
1.8408203125
1.826171875
1.7919921875
1.7529296875
1.71875
1.6796875
1.630859375
1.6015625
1.5576171875
1.5283203125
1.5087890625
1.455078125
1.4306640625
1.396484375
1.3623046875
1.328125
1.298828125
1.2744140625
1.2548828125
1.2353515625
1.2158203125
1.2060546875
1.181640625
1.171875
1.1767578125
1.15234375
1.1474609375
1.142578125
1.1279296875
1.1328125
1.11328125
1.1083984375
1.0986328125
1.083984375
1.0888671875
1.09375
1.0791015625
1.0888671875
1.083984375
1.07421875
1.0595703125
1.064453125
1.0595703125
1.0546875
1.0498046875
1.0595703125
1.064453125
1.0546875
1.0595703125
1.07421875
1.064453125
1.07421875
1.0888671875
1.0888671875
1.1083984375
1.1181640625
1.1572265625
1.2255859375
1.2939453125
1.3720703125
1.46484375
1.5380859375
1.6162109375
1.6845703125
1.73828125
1.7919921875
1.826171875
1.85546875
1.884765625
1.8896484375
1.904296875
1.9091796875
1.89453125
1.884765625
1.8701171875
1.8359375
1.8115234375
1.77734375
1.728515625
1.69921875
1.66015625
1.62109375
1.5966796875
1.54296875
1.513671875
1.484375
1.4404296875
1.4208984375
1.4013671875
1.3671875
1.3525390625
1.3330078125
1.3037109375
1.2939453125
1.2646484375
1.2451171875
1.2255859375
1.201171875
1.1962890625
1.181640625
1.1572265625
1.1474609375
1.1376953125
1.123046875
1.123046875
1.1083984375
1.0986328125
1.103515625
1.0888671875
1.083984375
1.09375
1.07421875
1.0693359375
1.07421875
1.0595703125
1.0546875
1.044921875
1.03515625
1.0302734375
1.0302734375
1.03515625
1.0498046875
1.0400390625
1.0498046875
1.0498046875
1.044921875
1.0498046875
1.0546875
1.0498046875
1.0693359375
1.0888671875
1.123046875
1.181640625
1.2646484375
1.357421875
1.4453125
1.5380859375
1.62109375
1.6943359375
1.7529296875
1.806640625
1.8505859375
1.884765625
1.9140625
1.9287109375
1.943359375
1.953125
1.953125
1.9482421875
1.9384765625
1.9189453125
1.89453125
1.865234375
1.826171875
1.787109375
1.748046875
1.7138671875
1.6650390625
1.62109375
1.58203125
1.54296875
1.50390625
1.4697265625
1.435546875
1.4013671875
1.376953125
1.34765625
1.318359375
1.2890625
1.2646484375
1.240234375
1.2158203125
1.19140625
1.171875
1.15234375
1.1328125
1.1181640625
1.0986328125
1.083984375
1.0693359375
1.0595703125
1.0498046875
1.0400390625
1.0302734375
1.025390625
1.03515625
1.0205078125
1.0205078125
1.0205078125
1.015625
1.0107421875
1.0107421875
1.0107421875
1.0107421875
1.0107421875
1.015625
1.0302734375
1.0205078125
1.03515625
1.0498046875
1.0400390625
1.044921875
1.044921875
1.044921875
1.0546875
1.0546875
1.064453125
1.103515625
1.15234375
1.2255859375
1.3330078125
1.416015625
1.5087890625
1.5966796875
1.669921875
1.7236328125
1.7724609375
1.8212890625
1.85546875
1.884765625
1.9091796875
1.9384765625
1.9384765625
1.943359375
1.9482421875
1.93359375
1.9189453125
1.8994140625
1.8603515625
1.8310546875
1.7822265625
1.728515625
1.689453125
1.640625
1.5966796875
1.5478515625
1.4990234375
1.4599609375
1.4306640625
1.38671875
1.3525390625
1.3232421875
1.2890625
1.2646484375
1.2353515625
1.2109375
1.2109375
1.1767578125
1.1669921875
1.162109375
1.1376953125
1.1279296875
1.1181640625
1.09375
1.09375
1.0693359375
1.064453125
1.0595703125
1.0400390625
1.03515625
1.0302734375
1.015625
1.0205078125
1.025390625
1.0107421875
1.0205078125
1.025390625
1.015625
1.025390625
1.0205078125
1.0205078125
1.03515625
1.0205078125
1.0302734375
1.0400390625
1.025390625
1.03515625
1.044921875
1.0400390625
1.044921875
1.0400390625
1.044921875
1.0546875
1.0546875
1.0693359375
1.103515625
1.1474609375
1.220703125
1.3037109375
1.3916015625
1.4990234375
1.5869140625
1.66015625
1.728515625
1.7822265625
1.826171875
1.865234375
1.8798828125
1.89453125
1.9189453125
1.9140625
1.9091796875
1.904296875
1.884765625
1.8603515625
1.8310546875
1.796875
1.7578125
1.708984375
1.6650390625
1.6259765625
1.5673828125
1.5283203125
1.4892578125
1.4501953125
1.40625
1.376953125
1.3427734375
1.3134765625
1.2841796875
1.2548828125
1.23046875
1.2060546875
1.1865234375
1.171875
1.15234375
1.142578125
1.1279296875
1.1083984375
1.1083984375
1.103515625
1.0888671875
1.0986328125
1.07421875
1.0693359375
1.064453125
1.0498046875
1.0498046875
1.0546875
1.0400390625
1.0498046875
1.03515625
1.025390625
1.03515625
1.0302734375
1.0302734375
1.044921875
1.03515625
1.0400390625
1.0546875
1.03515625
1.044921875
1.0546875
1.044921875
1.0595703125
1.0595703125
1.0546875
1.07421875
1.0693359375
1.09375
1.1328125
1.171875
1.2548828125
1.34765625
1.435546875
1.5234375
1.611328125
1.6796875
1.7431640625
1.7919921875
1.8408203125
1.884765625
1.904296875
1.9287109375
1.9482421875
1.943359375
1.953125
1.9482421875
1.923828125
1.9140625
1.8798828125
1.8408203125
1.81640625
1.7626953125
1.7236328125
1.689453125
1.6357421875
1.5966796875
1.5576171875
1.513671875
1.484375
1.4453125
1.4111328125
1.3818359375
1.34765625
1.318359375
1.3037109375
1.2744140625
1.2548828125
1.2451171875
1.2158203125
1.1962890625
1.171875
1.15234375
1.1474609375
1.1328125
1.11328125
1.11328125
1.0888671875
1.083984375
1.0791015625
1.0546875
1.0400390625
1.0302734375
1.015625
1.005859375
1.0009765625
0.9912109375
0.986328125
0.9814453125
0.9765625
0.9716796875
0.966796875
0.9814453125
0.99609375
1.0009765625
1.0205078125
1.044921875
1.0498046875
1.064453125
1.07421875
1.0888671875
1.103515625
1.103515625
1.142578125
1.1962890625
1.2646484375
1.3427734375
1.4501953125
1.5625
1.650390625
1.7041015625
1.7578125
1.806640625
1.845703125
1.8798828125
1.904296875
1.9580078125
1.982421875
1.982421875
1.982421875
1.982421875
1.97265625
1.9580078125
1.9384765625
1.9189453125
1.884765625
1.845703125
1.8115234375
1.767578125
1.7236328125
1.6796875
1.6357421875
1.5966796875
1.552734375
1.513671875
1.4794921875
1.4501953125
1.4208984375
1.38671875
1.3623046875
1.337890625
1.3134765625
1.2841796875
1.259765625
1.240234375
1.2158203125
1.1962890625
1.171875
1.15234375
1.1328125
1.1181640625
1.09375
1.0791015625
1.0595703125
1.044921875
1.0302734375
1.0205078125
1.005859375
0.99609375
0.986328125
0.9814453125
0.9716796875
0.9716796875
0.9912109375
0.9912109375
0.9912109375
0.99609375
0.99609375
0.9912109375
0.9912109375
1.0009765625
1.03515625
1.03515625
1.044921875
1.0693359375
1.0791015625
1.0888671875
1.0986328125
1.1083984375
1.11328125
1.1376953125
1.1767578125
1.220703125
1.259765625
1.34765625
1.4404296875
1.5234375
1.6015625
1.6845703125
1.7529296875
1.806640625
1.8603515625
1.904296875
1.9384765625
1.97265625
1.9921875
2.01171875
2.041015625
2.0654296875
2.0751953125
2.0751953125
2.0751953125
2.0556640625
2.0361328125
2.01171875
1.9775390625
1.9482421875
1.904296875
1.8701171875
1.826171875
1.7919921875
1.7578125
1.71875
1.650390625
1.6162109375
1.5576171875
1.54296875
1.50390625
1.484375
1.455078125
1.42578125
1.4111328125
1.376953125
1.3427734375
1.328125
1.3037109375
1.279296875
1.2548828125
1.240234375
1.220703125
1.19140625
1.171875
1.142578125
1.1328125
1.1181640625
1.0986328125
1.0888671875
1.0693359375
1.064453125
1.0546875
1.0400390625
1.03515625
1.0302734375
1.0205078125
1.025390625
1.0205078125
1.015625
1.005859375
1.005859375
1.0107421875
1.0009765625
0.9912109375
0.99609375
0.99609375
1.0009765625
1.005859375
1.0107421875
1.005859375
1.0107421875
1.0205078125
1.025390625
1.03515625
1.0595703125
1.09375
1.162109375
1.2548828125
1.3623046875
1.4697265625
1.5625
1.6455078125
1.7138671875
1.787109375
1.8359375
1.875
1.9189453125
1.9384765625
1.962890625
1.9873046875
1.9677734375
1.9384765625
1.9140625
1.884765625
1.845703125
1.8115234375
1.767578125
1.7236328125
1.6748046875
1.630859375
1.5771484375
1.533203125
1.4892578125
1.4404296875
1.396484375
1.357421875
1.318359375
1.2841796875
1.25
1.220703125
1.19140625
1.162109375
1.1669921875
1.162109375
1.162109375
1.1669921875
1.171875
1.1669921875
1.1572265625
1.1572265625
1.142578125
1.123046875
1.1083984375
1.0986328125
1.09375
1.083984375
1.0498046875
1.0400390625
1.03515625
1.03515625
1.0400390625
1.03515625
1.0302734375
1.025390625
1.0400390625
1.0302734375
1.03515625
1.0400390625
1.03515625
1.044921875
1.0498046875
1.0498046875
1.0498046875
1.0498046875
1.0546875
1.044921875
1.0546875
1.0595703125
1.0498046875
1.0546875
1.0498046875
1.0546875
1.0693359375
1.083984375
1.11328125
1.1328125
1.1962890625
1.26953125
1.3671875
1.46484375
1.552734375
1.6357421875
1.708984375
1.77734375
1.8115234375
1.85546875
1.89453125
1.9140625
1.9287109375
1.943359375
1.943359375
1.943359375
1.9287109375
1.9189453125
1.89453125
1.8603515625
1.8212890625
1.787109375
1.7431640625
1.708984375
1.66015625
1.62109375
1.572265625
1.5087890625
1.474609375
1.435546875
1.4013671875
1.3720703125
1.34765625
1.3232421875
1.3037109375
1.2841796875
1.259765625
1.240234375
1.2255859375
1.201171875
1.1669921875
1.1279296875
1.0888671875
1.0595703125
1.044921875
1.0400390625
1.0009765625
0.9765625
0.9716796875
0.9912109375
1.0009765625
1.0107421875
1.0107421875
1.015625
1.0205078125
1.005859375
1.015625
1.0205078125
1.0205078125
1.0205078125
1.015625
1.025390625
1.03515625
1.0302734375
1.0205078125
1.025390625
1.0400390625
1.0400390625
1.03515625
1.0400390625
1.015625
1.025390625
1.025390625
1.0498046875
1.0498046875
1.0986328125
1.162109375
1.240234375
1.337890625
1.435546875
1.5234375
1.5966796875
1.669921875
1.7431640625
1.8017578125
1.845703125
1.884765625
1.9091796875
1.93359375
1.9482421875
1.9384765625
1.9189453125
1.8994140625
1.875
1.8505859375
1.8115234375
1.7822265625
1.7431640625
1.6943359375
1.650390625
1.6015625
1.552734375
1.5283203125
1.4892578125
1.46484375
1.435546875
1.416015625
1.396484375
1.3720703125
1.3525390625
1.3330078125
1.328125
1.3134765625
1.2939453125
1.2744140625
1.259765625
1.25
1.2353515625
1.2158203125
1.201171875
1.181640625
1.1669921875
1.1474609375
1.1376953125
1.1181640625
1.0986328125
1.09375
1.0791015625
1.0693359375
1.07421875
1.0595703125
1.0595703125
1.0498046875
1.0302734375
1.0302734375
1.0205078125
1.015625
1.015625
1.015625
1.0302734375
1.005859375
0.9814453125
0.966796875
0.9521484375
0.9375
0.9228515625
0.9130859375
0.908203125
0.9033203125
0.908203125
0.927734375
0.9521484375
0.9912109375
1.044921875
1.1572265625
1.26953125
1.3916015625
1.4794921875
1.58203125
1.6748046875
1.748046875
1.81640625
1.865234375
1.9091796875
1.9482421875
1.97265625
1.9873046875
1.9921875
1.9970703125
2.001953125
1.982421875
1.9384765625
1.904296875
1.8798828125
1.845703125
1.8115234375
1.7724609375
1.7333984375
1.6796875
1.6357421875
1.6064453125
1.572265625
1.5380859375
1.50390625
1.474609375
1.4453125
1.4208984375
1.4013671875
1.376953125
1.357421875
1.337890625
1.318359375
1.2890625
1.2744140625
1.2646484375
1.240234375
1.2158203125
1.19140625
1.1669921875
1.162109375
1.1474609375
1.1376953125
1.1181640625
1.103515625
1.0888671875
1.07421875
1.0595703125
1.0546875
1.0400390625
1.03515625
1.025390625
1.015625
1.025390625
1.025390625
1.025390625
1.0205078125
1.015625
1.0205078125
1.0107421875
1.015625
1.015625
1.0107421875
1.0009765625
0.99609375
1.0107421875
1.005859375
1.0107421875
1.015625
1.0400390625
1.0693359375
1.11328125
1.1865234375
1.2841796875
1.38671875
1.474609375
1.5625
1.6357421875
1.7041015625
1.748046875
1.806640625
1.845703125
1.8603515625
1.8603515625
1.8603515625
1.8603515625
1.865234375
1.8798828125
1.884765625
1.875
1.8701171875
1.8505859375
1.8212890625
1.7919921875
1.7529296875
1.708984375
1.6650390625
1.6162109375
1.572265625
1.5283203125
1.494140625
1.42578125
1.3623046875
1.3134765625
1.26953125
1.2255859375
1.181640625
1.15234375
1.142578125
1.1328125
1.123046875
1.09375
1.064453125
1.0498046875
1.03515625
1.03515625
1.0205078125
1.015625
1.0107421875
1.0205078125
1.0302734375
1.03515625
1.0302734375
1.044921875
1.044921875
1.025390625
0.99609375
0.966796875
0.947265625
0.9326171875
0.9228515625
0.9228515625
0.9130859375
0.9033203125
0.8984375
0.8935546875
0.8935546875
0.888671875
0.888671875
0.888671875
0.888671875
0.888671875
0.8935546875
0.8935546875
0.8984375
0.9033203125
0.908203125
0.9228515625
0.9326171875
0.9619140625
1.015625
1.0693359375
1.142578125
1.23046875
1.318359375
1.396484375
1.4794921875
1.5478515625
1.611328125
1.6650390625
1.7041015625
1.73828125
1.7626953125
1.7822265625
1.796875
1.8017578125
1.8017578125
1.796875
1.7822265625
1.7578125
1.728515625
1.6943359375
1.6552734375
1.6162109375
1.572265625
1.5234375
1.494140625
1.4599609375
1.4208984375
1.3916015625
1.3671875
1.34765625
1.318359375
1.2890625
1.259765625
1.2353515625
1.2158203125
1.19140625
1.1962890625
1.201171875
1.2158203125
1.220703125
1.2255859375
1.2255859375
1.220703125
1.2255859375
1.2255859375
1.2158203125
1.220703125
1.201171875
1.1962890625
1.1962890625
1.1865234375
1.1962890625
1.19140625
1.171875
1.181640625
1.162109375
1.162109375
1.162109375
1.1669921875
1.1767578125
1.1328125
1.15234375
1.142578125
1.1376953125
1.142578125
1.1474609375
1.1474609375
1.15234375
1.1572265625
1.162109375
1.162109375
1.171875
1.181640625
1.19140625
1.2109375
1.2451171875
1.298828125
1.3671875
1.435546875
1.5185546875
1.5869140625
1.6650390625
1.7333984375
1.77734375
1.826171875
1.8603515625
1.8798828125
1.8994140625
1.9091796875
1.923828125
1.923828125
1.904296875
1.89453125
1.8701171875
1.845703125
1.806640625
1.7626953125
1.728515625
1.6845703125
1.6455078125
1.591796875
1.5576171875
1.5283203125
1.494140625
1.455078125
1.42578125
1.3916015625
1.3671875
1.328125
1.3134765625
1.2939453125
1.279296875
1.2744140625
1.2451171875
1.2353515625
1.201171875
1.1865234375
1.1767578125
1.171875
1.1572265625
1.142578125
1.1328125
1.1279296875
1.11328125
1.103515625
1.09375
1.09375
1.083984375
1.07421875
1.0791015625
1.0498046875
1.025390625
1.0205078125
1.005859375
1.005859375
1.015625
1.0302734375
1.044921875
1.0546875
1.064453125
1.064453125
1.07421875
1.0791015625
1.0546875
1.064453125
1.07421875
1.0888671875
1.07421875
1.083984375
1.1083984375
1.1328125
1.19140625
1.2451171875
1.3232421875
1.416015625
1.50390625
1.58203125
1.66015625
1.71875
1.787109375
1.8017578125
1.8310546875
1.8798828125
1.89453125
1.923828125
1.9384765625
1.953125
1.9482421875
1.93359375
1.923828125
1.9091796875
1.8798828125
1.8505859375
1.806640625
1.767578125
1.728515625
1.689453125
1.6552734375
1.611328125
1.5673828125
1.5283203125
1.4892578125
1.4599609375
1.4306640625
1.3916015625
1.3720703125
1.3525390625
1.3330078125
1.30859375
1.2841796875
1.2744140625
1.2548828125
1.240234375
1.220703125
1.1962890625
1.181640625
1.162109375
1.15234375
1.1328125
1.1181640625
1.103515625
1.09375
1.0888671875
1.083984375
1.07421875
1.07421875
1.064453125
1.064453125
1.0595703125
1.0546875
1.0546875
1.0498046875
1.044921875
1.0400390625
1.03515625
1.025390625
1.015625
1.0205078125
1.0205078125
1.0107421875
1.0205078125
1.0205078125
1.0302734375
1.0302734375
1.0302734375
1.03515625
1.03515625
1.0693359375
1.123046875
1.181640625
1.2744140625
1.3427734375
1.42578125
1.4990234375
1.5771484375
1.6552734375
1.73828125
1.806640625
1.8603515625
1.904296875
1.943359375
1.962890625
1.9873046875
1.9921875
1.9970703125
1.9921875
1.97265625
1.953125
1.93359375
1.8896484375
1.8603515625
1.81640625
1.77734375
1.728515625
1.6845703125
1.6455078125
1.6015625
1.5576171875
1.5283203125
1.484375
1.4306640625
1.3916015625
1.357421875
1.318359375
1.2841796875
1.2548828125
1.220703125
1.2109375
1.1865234375
1.1767578125
1.1669921875
1.142578125
1.1328125
1.11328125
1.103515625
1.103515625
1.09375
1.0791015625
1.0693359375
1.0498046875
1.0546875
1.044921875
1.044921875
1.0498046875
1.03515625
1.0400390625
1.025390625
1.0205078125
1.0302734375
1.025390625
1.0302734375
1.0302734375
1.0205078125
1.0302734375
1.0302734375
1.0400390625
1.03515625
1.0302734375
1.044921875
1.0400390625
1.0400390625
1.03515625
1.044921875
1.0546875
1.0595703125
1.0595703125
1.0791015625
1.1083984375
1.162109375
1.220703125
1.298828125
1.38671875
1.474609375
1.5576171875
1.6162109375
1.6845703125
1.728515625
1.77734375
1.806640625
1.8359375
1.8603515625
1.8603515625
1.8701171875
1.8798828125
1.8701171875
1.8603515625
1.8359375
1.8115234375
1.787109375
1.7431640625
1.708984375
1.669921875
1.5966796875
1.5234375
1.4599609375
1.40625
1.3671875
1.3232421875
1.2841796875
1.2548828125
1.2255859375
1.19140625
1.171875
1.171875
1.1572265625
1.162109375
1.15234375
1.1474609375
1.1474609375
1.1376953125
1.1376953125
1.1279296875
1.1181640625
1.1181640625
1.1083984375
1.103515625
1.0986328125
1.0888671875
1.09375
1.0888671875
1.09375
1.09375
1.0546875
1.0595703125
1.0498046875
1.0498046875
1.044921875
1.044921875
1.0498046875
1.0498046875
1.0498046875
1.0498046875
1.044921875
1.0595703125
1.0498046875
1.0546875
1.064453125
1.07421875
1.0791015625
1.0791015625
1.07421875
1.0888671875
1.09375
1.11328125
1.1328125
1.1669921875
1.220703125
1.2841796875
1.3525390625
1.4306640625
1.5087890625
1.58203125
1.640625
1.7041015625
1.7529296875
1.787109375
1.8212890625
1.8359375
1.845703125
1.85546875
1.8603515625
1.8603515625
1.8359375
1.826171875
1.806640625
1.7626953125
1.7333984375
1.6943359375
1.66015625
1.62109375
1.5771484375
1.5380859375
1.50390625
1.4697265625
1.435546875
1.4013671875
1.357421875
1.3134765625
1.2744140625
1.2353515625
1.2060546875
1.1767578125
1.15234375
1.1376953125
1.11328125
1.09375
1.0791015625
1.0693359375
1.0693359375
1.0693359375
1.07421875
1.0595703125
1.07421875
1.0546875
1.025390625
1.005859375
0.986328125
0.986328125
1.005859375
1.015625
1.025390625
1.0400390625
1.0498046875
1.064453125
1.07421875
1.0693359375
1.0693359375
1.083984375
1.07421875
1.0888671875
1.09375
1.0986328125
1.0986328125
1.0986328125
1.103515625
1.103515625
1.1083984375
1.103515625
1.1181640625
1.1279296875
1.1572265625
1.2060546875
1.240234375
1.3037109375
1.3818359375
1.4599609375
1.552734375
1.6259765625
1.689453125
1.7333984375
1.7578125
1.787109375
1.8017578125
1.8212890625
1.8408203125
1.8359375
1.8310546875
1.826171875
1.8115234375
1.796875
1.787109375
1.7578125
1.748046875
1.728515625
1.69921875
1.6650390625
1.6357421875
1.6064453125
1.5771484375
1.54296875
1.513671875
1.4892578125
1.4599609375
1.435546875
1.4208984375
1.38671875
1.3671875
1.34765625
1.3232421875
1.3037109375
1.2939453125
1.279296875
1.2548828125
1.2353515625
1.2255859375
1.2158203125
1.1962890625
1.1767578125
1.162109375
1.1572265625
1.1474609375
1.1474609375
1.1328125
1.123046875
1.1181640625
1.1083984375
1.103515625
1.0986328125
1.0791015625
1.0791015625
1.0595703125
1.064453125
1.0595703125
1.0498046875
1.0595703125
1.044921875
1.0498046875
1.0546875
1.03515625
1.044921875
1.044921875
1.0546875
1.044921875
1.015625
1.005859375
1.005859375
0.99609375
1.0205078125
1.083984375
1.162109375
1.2548828125
1.3525390625
1.455078125
1.5283203125
1.62109375
1.689453125
1.7578125
1.8017578125
1.8359375
1.8798828125
1.8994140625
1.9140625
1.93359375
1.93359375
1.9384765625
1.923828125
1.8994140625
1.8798828125
1.8505859375
1.8212890625
1.7822265625
1.73828125
1.69921875
1.6259765625
1.5869140625
1.5380859375
1.5087890625
1.474609375
1.435546875
1.416015625
1.3916015625
1.3671875
1.3525390625
1.328125
1.3134765625
1.2890625
1.2744140625
1.259765625
1.25
1.23046875
1.2060546875
1.1962890625
1.1767578125
1.1572265625
1.1474609375
1.1279296875
1.11328125
1.11328125
1.09375
1.0888671875
1.07421875
1.0693359375
1.07421875
1.0693359375
1.064453125
1.064453125
1.0546875
1.0595703125
1.0546875
1.0546875
1.0546875
1.0498046875
1.044921875
1.044921875
1.0400390625
1.0205078125
1.0009765625
0.9912109375
0.986328125
0.9765625
0.966796875
0.95703125
0.9619140625
0.9765625
1.0009765625
1.0205078125
1.09375
1.171875
1.2646484375
1.376953125
1.435546875
1.50390625
1.5673828125
1.62109375
1.66015625
1.69921875
1.728515625
1.7529296875
1.767578125
1.7822265625
1.7822265625
1.7822265625
1.77734375
1.7626953125
1.7431640625
1.7138671875
1.6845703125
1.650390625
1.611328125
1.572265625
1.5283203125
1.4892578125
1.4501953125
1.42578125
1.416015625
1.4013671875
1.3916015625
1.3623046875
1.34765625
1.3427734375
1.337890625
1.318359375
1.318359375
1.3037109375
1.2939453125
1.2890625
1.2744140625
1.26953125
1.259765625
1.240234375
1.2353515625
1.220703125
1.220703125
1.1865234375
1.1572265625
1.1572265625
1.1279296875
1.1376953125
1.1328125
1.1279296875
1.1279296875
1.11328125
1.1181640625
1.11328125
1.1181640625
1.123046875
1.1083984375
1.1083984375
1.103515625
1.0986328125
1.1083984375
1.1083984375
1.103515625
1.0986328125
1.0986328125
1.0986328125
1.0986328125
1.103515625
1.0986328125
1.0986328125
1.09375
1.0888671875
1.1083984375
1.1376953125
1.1865234375
1.2548828125
1.30859375
1.3916015625
1.4794921875
1.5625
1.640625
1.689453125
1.7431640625
1.787109375
1.8115234375
1.8359375
1.85546875
1.875
1.8798828125
1.875
1.8701171875
1.85546875
1.8408203125
1.8115234375
1.7724609375
1.7333984375
1.689453125
1.650390625
1.6064453125
1.5576171875
1.513671875
1.474609375
1.455078125
1.42578125
1.3818359375
1.3525390625
1.3330078125
1.318359375
1.2939453125
1.26953125
1.2548828125
1.2353515625
1.23046875
1.2109375
1.162109375
1.1376953125
1.1083984375
1.083984375
1.0693359375
1.064453125
1.07421875
1.064453125
1.0595703125
1.0595703125
1.0400390625
1.0546875
1.0595703125
1.0693359375
1.064453125
1.0595703125
1.064453125
1.0693359375
1.064453125
1.07421875
1.0791015625
1.083984375
1.083984375
1.0791015625
1.0888671875
1.0986328125
1.09375
1.09375
1.0888671875
1.07421875
1.0546875
1.0693359375
1.064453125
1.083984375
1.09375
1.1181640625
1.15234375
1.1865234375
1.25
1.3232421875
1.396484375
1.4794921875
1.5478515625
1.6064453125
1.6650390625
1.7041015625
1.748046875
1.7724609375
1.7919921875
1.8212890625
1.8310546875
1.826171875
1.8212890625
1.8115234375
1.796875
1.767578125
1.7333984375
1.689453125
1.650390625
1.6162109375
1.5771484375
1.54296875
1.50390625
1.4599609375
1.4306640625
1.40625
1.3818359375
1.3525390625
1.337890625
1.3134765625
1.3037109375
1.2841796875
1.26953125
1.2548828125
1.240234375
1.2255859375
1.2158203125
1.201171875
1.181640625
1.1767578125
1.162109375
1.162109375
1.1376953125
1.1181640625
1.1181640625
1.0986328125
1.103515625
1.0986328125
1.0888671875
1.083984375
1.0791015625
1.0791015625
1.0888671875
1.07421875
1.07421875
1.07421875
1.083984375
1.0791015625
1.0546875
1.0302734375
1.025390625
1.0009765625
0.9814453125
0.9716796875
0.95703125
0.95703125
0.95703125
0.966796875
0.99609375
1.083984375
1.15234375
1.2451171875
1.34765625
1.4404296875
1.5380859375
1.5966796875
1.6650390625
1.7236328125
1.7822265625
1.8212890625
1.85546875
1.8603515625
1.884765625
1.8994140625
1.9140625
1.8994140625
1.89453125
1.8701171875
1.8359375
1.8017578125
1.7529296875
1.7041015625
1.669921875
1.6162109375
1.591796875
1.5625
1.533203125
1.513671875
1.4892578125
1.4599609375
1.4306640625
1.4111328125
1.396484375
1.3818359375
1.3623046875
1.34765625
1.328125
1.30859375
1.2841796875
1.2744140625
1.259765625
1.2451171875
1.1962890625
1.1572265625
1.1181640625
1.083984375
1.0546875
1.0400390625
1.0205078125
1.0009765625
0.9814453125
0.966796875
0.95703125
0.9423828125
0.9326171875
0.9228515625
0.91796875
0.908203125
0.908203125
0.908203125
0.9033203125
0.9033203125
0.9033203125
0.9033203125
0.9033203125
0.908203125
0.91796875
0.9326171875
0.9375
0.9423828125
0.95703125
0.9814453125
1.0205078125
1.0693359375
1.142578125
1.2255859375
1.3134765625
1.396484375
1.474609375
1.552734375
1.6162109375
1.669921875
1.7138671875
1.7529296875
1.7822265625
1.806640625
1.8212890625
1.8359375
1.8408203125
1.845703125
1.8359375
1.826171875
1.806640625
1.7822265625
1.7529296875
1.71875
1.6796875
1.640625
1.6064453125
1.5673828125
1.5283203125
1.5087890625
1.4892578125
1.4697265625
1.4453125
1.4404296875
1.4453125
1.4404296875
1.42578125
1.4208984375
1.40625
1.3916015625
1.38671875
1.357421875
1.3427734375
1.337890625
1.328125
1.318359375
1.2939453125
1.2744140625
1.2451171875
1.2255859375
1.220703125
1.201171875
1.181640625
1.1865234375
1.1865234375
1.171875
1.1669921875
1.162109375
1.1669921875
1.1669921875
1.1572265625
1.15234375
1.15234375
1.1474609375
1.1328125
1.1328125
1.1279296875
1.123046875
1.1328125
1.1279296875
1.1279296875
1.1279296875
1.1328125
1.142578125
1.15234375
1.1767578125
1.23046875
1.30859375
1.3916015625
1.474609375
1.58203125
1.6650390625
1.7431640625
1.81640625
1.8701171875
1.9189453125
1.953125
1.9873046875
2.0068359375
2.0166015625
2.0166015625
2.01171875
2.0068359375
2.01171875
1.9775390625
1.9580078125
1.93359375
1.8994140625
1.865234375
1.8212890625
1.7724609375
1.73828125
1.689453125
1.6552734375
1.5966796875
1.5576171875
1.513671875
1.4794921875
1.4501953125
1.4111328125
1.3818359375
1.3671875
1.34765625
1.328125
1.298828125
1.2744140625
1.259765625
1.240234375
1.2255859375
1.1962890625
1.1669921875
1.123046875
1.083984375
1.0595703125
1.044921875
1.044921875
1.0400390625
1.0400390625
1.044921875
1.044921875
1.0302734375
1.03515625
1.025390625
1.0302734375
1.03515625
1.0205078125
1.025390625
1.025390625
1.025390625
1.025390625
1.0302734375
1.025390625
1.0205078125
1.025390625
1.0205078125
1.0107421875
1.015625
1.005859375
0.9912109375
1.0009765625
1.0009765625
1.0205078125
1.0400390625
1.0888671875
1.1474609375
1.23046875
1.318359375
1.40625
1.484375
1.5673828125
1.6455078125
1.69921875
1.748046875
1.7919921875
1.8212890625
1.85546875
1.875
1.875
1.89453125
1.89453125
1.8896484375
1.8798828125
1.85546875
1.8310546875
1.796875
1.7626953125
1.7333984375
1.6943359375
1.6552734375
1.6162109375
1.572265625
1.5283203125
1.4990234375
1.4697265625
1.4453125
1.4111328125
1.3818359375
1.3525390625
1.337890625
1.318359375
1.3037109375
1.279296875
1.2548828125
1.2353515625
1.220703125
1.201171875
1.19140625
1.171875
1.1572265625
1.1376953125
1.1083984375
1.1083984375
1.0888671875
1.083984375
1.0595703125
1.044921875
1.044921875
1.03515625
1.025390625
1.0302734375
1.025390625
1.0302734375
1.03515625
1.025390625
1.03515625
1.0400390625
1.0302734375
1.03515625
1.0302734375
1.015625
0.9912109375
0.986328125
0.966796875
0.9521484375
0.9765625
0.99609375
1.015625
1.03515625
1.0888671875
1.1572265625
1.240234375
1.3134765625
1.396484375
1.484375
1.5673828125
1.630859375
1.7041015625
1.7529296875
1.806640625
1.8408203125
1.8701171875
1.89453125
1.904296875
1.9189453125
1.9287109375
1.923828125
1.9140625
1.89453125
1.875
1.8505859375
1.77734375
1.7431640625
1.69921875
1.650390625
1.6162109375
1.58203125
1.5478515625
1.5234375
1.4892578125
1.4599609375
1.4306640625
1.4111328125
1.3916015625
1.3720703125
1.34765625
1.328125
1.30859375
1.26953125
1.259765625
1.2451171875
1.220703125
1.2109375
1.19140625
1.1767578125
1.1669921875
1.15234375
1.1376953125
1.123046875
1.1083984375
1.1083984375
1.0986328125
1.083984375
1.0791015625
1.0693359375
1.0693359375
1.0595703125
1.044921875
1.044921875
1.0302734375
1.0400390625
1.0302734375
1.03515625
1.03515625
1.0302734375
1.0302734375
1.03515625
1.0400390625
1.03515625
1.0302734375
1.0400390625
1.044921875
1.0498046875
1.0546875
1.0498046875
1.0791015625
1.0986328125
1.162109375
1.2353515625
1.318359375
1.416015625
1.5087890625
1.5771484375
1.66015625
1.7236328125
1.787109375
1.826171875
1.865234375
1.8994140625
1.9189453125
1.923828125
1.904296875
1.884765625
1.865234375
1.8408203125
1.8408203125
1.8359375
1.8212890625
1.796875
1.7626953125
1.7236328125
1.689453125
1.640625
1.6015625
1.5673828125
1.5380859375
1.50390625
1.474609375
1.4501953125
1.4208984375
1.396484375
1.3720703125
1.3525390625
1.337890625
1.30859375
1.2939453125
1.26953125
1.25
1.220703125
1.2060546875
1.1865234375
1.1474609375
1.11328125
1.09375
1.0791015625
1.07421875
1.0693359375
1.0595703125
1.0546875
1.0400390625
1.044921875
1.03515625
1.025390625
1.025390625
1.0205078125
1.0205078125
1.0205078125
1.015625
1.015625
1.0205078125
1.0302734375
1.0302734375
1.025390625
1.025390625
1.03515625
1.0400390625
1.0302734375
1.03515625
1.03515625
1.03515625
1.03515625
1.044921875
1.0498046875
1.0595703125
1.064453125
1.0888671875
1.1279296875
1.1767578125
1.2451171875
1.30859375
1.40625
1.50390625
1.572265625
1.6455078125
1.7138671875
1.767578125
1.81640625
1.8408203125
1.875
1.8896484375
1.8994140625
1.9091796875
1.904296875
1.9091796875
1.884765625
1.85546875
1.8115234375
1.7578125
1.7333984375
1.69921875
1.669921875
1.640625
1.5771484375
1.5234375
1.4794921875
1.42578125
1.38671875
1.3525390625
1.30859375
1.2841796875
1.2548828125
1.2109375
1.1767578125
1.1474609375
1.123046875
1.11328125
1.1083984375
1.103515625
1.103515625
1.103515625
1.103515625
1.09375
1.09375
1.103515625
1.0986328125
1.09375
1.09375
1.09375
1.0986328125
1.0888671875
1.0888671875
1.0888671875
1.083984375
1.083984375
1.0791015625
1.07421875
1.0791015625
1.07421875
1.07421875
1.0693359375
1.07421875
1.0791015625
1.0400390625
1.0302734375
1.0302734375
1.025390625
1.044921875
1.044921875
1.0498046875
1.0595703125
1.0595703125
1.0693359375
1.0888671875
1.11328125
1.1572265625
1.201171875
1.26953125
1.3525390625
1.4501953125
1.533203125
1.6015625
1.669921875
1.71875
1.7724609375
1.8115234375
1.8310546875
1.85546875
1.8701171875
1.875
1.875
1.8603515625
1.8505859375
1.8310546875
1.806640625
1.77734375
1.728515625
1.689453125
1.66015625
1.6162109375
1.572265625
1.533203125
1.50390625
1.474609375
1.4453125
1.416015625
1.3916015625
1.3671875
1.3427734375
1.318359375
1.3037109375
1.279296875
1.2646484375
1.2451171875
1.23046875
1.220703125
1.19140625
1.181640625
1.162109375
1.142578125
1.1279296875
1.1083984375
1.0986328125
1.0693359375
1.044921875
1.025390625
1.005859375
0.9912109375
0.986328125
0.9765625
0.9716796875
0.9521484375
0.9326171875
0.9228515625
0.908203125
0.9130859375
0.9326171875
0.9619140625
0.986328125
1.0009765625
1.015625
1.025390625
1.03515625
1.0498046875
1.064453125
1.0791015625
1.0888671875
1.1083984375
1.1474609375
1.19140625
1.2548828125
1.3232421875
1.4013671875
1.4794921875
1.5478515625
1.6259765625
1.6845703125
1.7431640625
1.7822265625
1.8212890625
1.85546875
1.8798828125
1.8994140625
1.884765625
1.85546875
1.8603515625
1.8408203125
1.8359375
1.826171875
1.787109375
1.7578125
1.71875
1.6796875
1.6455078125
1.6064453125
1.5771484375
1.54296875
1.4990234375
1.4794921875
1.4453125
1.416015625
1.38671875
1.3623046875
1.337890625
1.318359375
1.3037109375
1.2939453125
1.279296875
1.2548828125
1.2353515625
1.23046875
1.2109375
1.201171875
1.19140625
1.171875
1.1572265625
1.1474609375
1.1376953125
1.1181640625
1.1083984375
1.103515625
1.083984375
1.0791015625
1.083984375
1.083984375
1.083984375
1.07421875
1.07421875
1.07421875
1.0693359375
1.0693359375
1.0693359375
1.0693359375
1.064453125
1.0595703125
1.064453125
1.0693359375
1.0595703125
1.0546875
1.0546875
1.064453125
1.0546875
1.083984375
1.123046875
1.171875
1.2353515625
1.3134765625
1.4111328125
1.50390625
1.5869140625
1.6650390625
1.7236328125
1.7529296875
1.7822265625
1.806640625
1.8212890625
1.8359375
1.8603515625
1.85546875
1.8505859375
1.8408203125
1.8603515625
1.8701171875
1.875
1.8603515625
1.845703125
1.826171875
1.7919921875
1.767578125
1.7333984375
1.689453125
1.66015625
1.62109375
1.5869140625
1.5576171875
1.5283203125
1.4990234375
1.4794921875
1.4453125
1.42578125
1.4013671875
1.3720703125
1.34765625
1.2939453125
1.259765625
1.25
1.2255859375
1.2158203125
1.2060546875
1.1865234375
1.162109375
1.15234375
1.1474609375
1.1328125
1.1181640625
1.1083984375
1.103515625
1.0888671875
1.09375
1.083984375
1.07421875
1.064453125
1.0546875
1.0498046875
1.044921875
1.0400390625
1.0400390625
1.025390625
1.0205078125
1.005859375
1.005859375
1.005859375
1.0107421875
1.0107421875
1.0009765625
0.9912109375
1.005859375
1.015625
1.0205078125
1.0498046875
1.083984375
1.142578125
1.2060546875
1.2890625
1.376953125
1.4697265625
1.5625
1.640625
1.71875
1.77734375
1.81640625
1.85546875
1.8896484375
1.9140625
1.89453125
1.884765625
1.865234375
1.845703125
1.826171875
1.806640625
1.7822265625
1.7529296875
1.7138671875
1.6796875
1.640625
1.591796875
1.5478515625
1.50390625
1.4599609375
1.416015625
1.376953125
1.337890625
1.3037109375
1.26953125
1.240234375
1.2109375
1.1962890625
1.2060546875
1.2109375
1.1962890625
1.19140625
1.1865234375
1.162109375
1.1669921875
1.1572265625
1.1572265625
1.15234375
1.142578125
1.142578125
1.1328125
1.123046875
1.123046875
1.11328125
1.103515625
1.0986328125
1.0888671875
1.0888671875
1.083984375
1.083984375
1.07421875
1.0693359375
1.0693359375
1.0693359375
1.07421875
1.0302734375
1.025390625
1.025390625
1.015625
1.025390625
1.0400390625
1.0400390625
1.0546875
1.044921875
1.0498046875
1.0498046875
1.0595703125
1.07421875
1.0693359375
1.0791015625
1.11328125
1.1572265625
1.220703125
1.279296875
1.3720703125
1.4697265625
1.5576171875
1.640625
1.708984375
1.767578125
1.8212890625
1.8603515625
1.8994140625
1.923828125
1.9384765625
1.943359375
1.93359375
1.9482421875
1.9384765625
1.943359375
1.93359375
1.8994140625
1.8798828125
1.8408203125
1.8017578125
1.7724609375
1.7236328125
1.6845703125
1.6455078125
1.6064453125
1.5771484375
1.5380859375
1.5087890625
1.4794921875
1.4453125
1.416015625
1.3916015625
1.3671875
1.3427734375
1.3037109375
1.279296875
1.2451171875
1.2353515625
1.2158203125
1.1962890625
1.162109375
1.1474609375
1.142578125
1.1279296875
1.1083984375
1.103515625
1.083984375
1.07421875
1.03515625
1.005859375
1.005859375
0.9814453125
0.9765625
0.9716796875
0.966796875
0.9765625
0.9765625
0.9814453125
0.986328125
0.9765625
0.986328125
0.99609375
1.0107421875
1.0009765625
0.9912109375
1.0009765625
1.015625
1.025390625
1.0205078125
1.0205078125
1.03515625
1.0400390625
1.044921875
1.0498046875
1.0595703125
1.064453125
1.0791015625
1.103515625
1.1474609375
1.19140625
1.23046875
1.30859375
1.4013671875
1.4892578125
1.572265625
1.6455078125
1.7041015625
1.7529296875
1.806640625
1.8359375
1.875
1.884765625
1.89453125
1.9091796875
1.904296875
1.9091796875
1.8994140625
1.8701171875
1.8359375
1.8017578125
1.767578125
1.728515625
1.6845703125
1.6455078125
1.6015625
1.5625
1.5234375
1.4794921875
1.4501953125
1.4208984375
1.3916015625
1.3623046875
1.337890625
1.3232421875
1.2890625
1.26953125
1.2451171875
1.2109375
1.2060546875
1.181640625
1.1767578125
1.1572265625
1.142578125
1.1328125
1.11328125
1.1083984375
1.0986328125
1.0791015625
1.083984375
1.0693359375
1.064453125
1.0595703125
1.0498046875
1.0498046875
1.0400390625
1.025390625
1.015625
1.015625
1.0302734375
1.025390625
1.0205078125
1.0205078125
1.0302734375
1.005859375
0.9912109375
0.986328125
0.966796875
0.9716796875
0.9765625
0.95703125
0.9375
0.927734375
0.91796875
0.927734375
0.95703125
0.966796875
0.99609375
1.0302734375
1.0595703125
1.0986328125
1.1572265625
1.220703125
1.3037109375
1.396484375
1.4697265625
1.552734375
1.6259765625
1.6845703125
1.73828125
1.767578125
1.796875
1.8310546875
1.8505859375
1.8701171875
1.884765625
1.8798828125
1.884765625
1.875
1.8603515625
1.8408203125
1.7822265625
1.7529296875
1.708984375
1.669921875
1.6357421875
1.6064453125
1.5869140625
1.5673828125
1.5380859375
1.5087890625
1.4892578125
1.4794921875
1.455078125
1.435546875
1.4208984375
1.40625
1.3916015625
1.3720703125
1.3525390625
1.3330078125
1.30859375
1.2939453125
1.2744140625
1.259765625
1.240234375
1.220703125
1.2060546875
1.1962890625
1.1865234375
1.1669921875
1.1474609375
1.1474609375
1.1376953125
1.1328125
1.1181640625
1.1083984375
1.0986328125
1.0888671875
1.0888671875
1.0791015625
1.0693359375
1.0693359375
1.0595703125
1.0595703125
1.0498046875
1.044921875
1.044921875
1.044921875
1.0498046875
1.0546875
1.0595703125
1.0693359375
1.083984375
1.11328125
1.162109375
1.2255859375
1.3232421875
1.416015625
1.513671875
1.6015625
1.6650390625
1.728515625
1.7822265625
1.8359375
1.8798828125
1.8896484375
1.923828125
1.93359375
1.9482421875
1.962890625
1.923828125
1.8896484375
1.8603515625
1.8310546875
1.806640625
1.796875
1.7822265625
1.7529296875
1.7333984375
1.6943359375
1.66015625
1.630859375
1.5966796875
1.572265625
1.533203125
1.50390625
1.4794921875
1.4501953125
1.4306640625
1.4013671875
1.376953125
1.3525390625
1.3427734375
1.30859375
1.298828125
1.2744140625
1.259765625
1.220703125
1.2060546875
1.19140625
1.1572265625
1.1376953125
1.1181640625
1.103515625
1.09375
1.07421875
1.0693359375
1.0595703125
1.044921875
1.0400390625
1.0400390625
1.03515625
1.03515625
1.025390625
1.0205078125
1.025390625
1.0205078125
1.0302734375
1.0205078125
1.015625
1.0009765625
1.0009765625
1.005859375
1.015625
1.0205078125
1.0302734375
1.025390625
1.0302734375
1.044921875
1.0595703125
1.103515625
1.1767578125
1.2548828125
1.337890625
1.4404296875
1.5283203125
1.611328125
1.6748046875
1.728515625
1.796875
1.8359375
1.875
1.8994140625
1.9140625
1.9287109375
1.9384765625
1.93359375
1.923828125
1.8896484375
1.875
1.85546875
1.8359375
1.8017578125
1.748046875
1.71875
1.669921875
1.6259765625
1.5869140625
1.5576171875
1.5185546875
1.4794921875
1.4501953125
1.4306640625
1.4111328125
1.3818359375
1.3525390625
1.3330078125
1.3134765625
1.2841796875
1.26953125
1.2353515625
1.2060546875
1.1767578125
1.1376953125
1.1181640625
1.103515625
1.09375
1.0888671875
1.083984375
1.07421875
1.0693359375
1.0693359375
1.0595703125
1.044921875
1.044921875
1.0400390625
1.03515625
1.03515625
1.03515625
1.025390625
1.025390625
1.025390625
1.0302734375
1.0205078125
1.0302734375
1.0205078125
1.0205078125
1.0205078125
1.0205078125
1.0205078125
0.9765625
0.9765625
0.9814453125
0.9765625
0.99609375
1.0107421875
1.0302734375
1.0546875
1.09375
1.1669921875
1.2451171875
1.328125
1.4208984375
1.50390625
1.58203125
1.6455078125
1.69921875
1.7529296875
1.787109375
1.826171875
1.85546875
1.865234375
1.8701171875
1.865234375
1.865234375
1.85546875
1.8359375
1.826171875
1.796875
1.7626953125
1.6943359375
1.640625
1.5771484375
1.533203125
1.4794921875
1.4404296875
1.396484375
1.3525390625
1.318359375
1.2841796875
1.25
1.240234375
1.2255859375
1.2109375
1.2109375
1.201171875
1.1962890625
1.1962890625
1.181640625
1.1767578125
1.1669921875
1.15234375
1.15234375
1.1279296875
1.123046875
1.11328125
1.09375
1.09375
1.0791015625
1.0791015625
1.07421875
1.0595703125
1.0693359375
1.0546875
1.0498046875
1.044921875
1.044921875
1.0498046875
1.0498046875
1.0400390625
1.0302734375
1.005859375
0.99609375
0.9765625
0.9716796875
0.9765625
0.9912109375
1.005859375
0.99609375
1.0205078125
1.03515625
1.0400390625
1.0498046875
1.0595703125
1.0693359375
1.0986328125
1.1328125
1.1767578125
1.2353515625
1.298828125
1.3720703125
1.4501953125
1.533203125
1.5966796875
1.650390625
1.7041015625
1.7431640625
1.7724609375
1.796875
1.8017578125
