0.6201171875
0.6298828125
0.6396484375
0.64453125
0.6494140625
0.6494140625
0.654296875
0.6591796875
0.6640625
0.6689453125
0.6689453125
0.673828125
0.673828125
0.6787109375
0.673828125
0.6787109375
0.673828125
0.673828125
0.673828125
0.6689453125
0.6689453125
0.6640625
0.6591796875
0.6591796875
0.654296875
0.654296875
0.654296875
0.6494140625
0.6494140625
0.6494140625
0.6494140625
0.64453125
0.64453125
0.64453125
0.6396484375
0.6396484375
0.634765625
0.6298828125
0.6298828125
0.6298828125
0.625
0.6201171875
0.615234375
0.615234375
0.6103515625
0.6103515625
0.60546875
0.60546875
0.6005859375
0.6005859375
0.595703125
0.595703125
0.595703125
0.5908203125
0.5908203125
0.5859375
0.5859375
0.5859375
0.5810546875
0.5810546875
0.5810546875
0.576171875
0.576171875
0.5712890625
0.5712890625
0.5712890625
0.56640625
0.56640625
0.5615234375
0.5615234375
0.5615234375
0.5615234375
0.56640625
0.5712890625
0.5712890625
0.5810546875
0.5908203125
0.595703125
0.60546875
0.6103515625
0.6201171875
0.6298828125
0.634765625
0.64453125
0.6494140625
0.654296875
0.6591796875
0.6640625
0.6689453125
0.673828125
0.6787109375
0.68359375
0.68359375
0.6884765625
0.693359375
0.693359375
0.693359375
0.693359375
0.693359375
0.6884765625
0.6884765625
0.68359375
0.68359375
0.6787109375
0.673828125
0.673828125
0.6689453125
0.673828125
0.6689453125
0.6640625
0.6640625
0.6640625
0.6640625
0.6640625
0.6591796875
0.6640625
0.6640625
0.6591796875
0.6591796875
0.654296875
0.654296875
0.654296875
0.6494140625
0.64453125
0.64453125
0.6396484375
0.6396484375
0.634765625
0.634765625
0.634765625
0.6298828125
0.6298828125
0.6298828125
0.6298828125
0.625
0.6201171875
0.6201171875
0.615234375
0.615234375
0.6103515625
0.6103515625
0.6103515625
0.60546875
0.6005859375
0.6005859375
0.595703125
0.595703125
0.5908203125
0.5859375
0.5859375
0.5859375
0.5859375
0.5859375
0.5908203125
0.5908203125
0.595703125
0.6005859375
0.6103515625
0.615234375
0.625
0.6298828125
0.634765625
0.64453125
0.6494140625
0.654296875
0.6640625
0.6689453125
0.673828125
0.6787109375
0.68359375
0.693359375
0.693359375
0.6982421875
0.6982421875
0.6982421875
0.6982421875
0.6982421875
0.6982421875
0.693359375
0.693359375
0.693359375
0.6884765625
0.68359375
0.68359375
0.6787109375
0.673828125
0.673828125
0.6689453125
0.6689453125
0.6640625
0.6640625
0.6591796875
0.6591796875
0.6591796875
0.6591796875
0.654296875
0.654296875
0.6494140625
0.6494140625
0.64453125
0.64453125
0.6396484375
0.634765625
0.634765625
0.6298828125
0.6298828125
0.6298828125
0.6298828125
0.625
0.625
0.6201171875
0.615234375
0.615234375
0.615234375
0.615234375
0.615234375
0.6103515625
0.6103515625
0.60546875
0.60546875
0.6005859375
0.6005859375
0.6005859375
0.595703125
0.595703125
0.5908203125
0.5908203125
0.5859375
0.5859375
0.5859375
0.5859375
0.5859375
0.5859375
0.5859375
0.5859375
0.5859375
0.5908203125
0.6005859375
0.60546875
0.615234375
0.615234375
0.6298828125
0.634765625
0.64453125
0.6494140625
0.6591796875
0.6689453125
0.6689453125
0.673828125
0.68359375
0.6884765625
0.693359375
0.6982421875
0.6982421875
0.703125
0.703125
0.703125
0.703125
0.703125
0.703125
0.6982421875
0.6982421875
0.6982421875
0.6884765625
0.6884765625
0.68359375
0.6787109375
0.6787109375
0.673828125
0.6689453125
0.6689453125
0.6640625
0.6591796875
0.6591796875
0.654296875
0.654296875
0.654296875
0.6494140625
0.64453125
0.64453125
0.6396484375
0.6396484375
0.634765625
0.634765625
0.6298828125
0.625
0.625
0.6201171875
0.6201171875
0.615234375
0.615234375
0.6103515625
0.6103515625
0.60546875
0.60546875
0.60546875
0.60546875
0.6005859375
0.595703125
0.595703125
0.5908203125
0.5908203125
0.5859375
0.5859375
0.5810546875
0.5810546875
0.576171875
0.576171875
0.576171875
0.576171875
0.5712890625
0.5712890625
0.5712890625
0.5712890625
0.5712890625
0.5712890625
0.5712890625
0.5712890625
0.576171875
0.5810546875
0.5908203125
0.5908203125
0.6005859375
0.6103515625
0.615234375
0.625
0.6298828125
0.6396484375
0.6494140625
0.654296875
0.6591796875
0.6689453125
0.6689453125
0.673828125
0.6787109375
0.68359375
0.6884765625
0.6884765625
0.6884765625
0.693359375
0.693359375
0.693359375
0.6884765625
0.6884765625
0.68359375
0.6787109375
0.6787109375
0.6787109375
0.673828125
0.6689453125
0.6689453125
0.6640625
0.6591796875
0.654296875
0.654296875
0.654296875
0.6494140625
0.64453125
0.64453125
0.6396484375
0.6396484375
0.634765625
0.634765625
0.6298828125
0.6298828125
0.625
0.625
0.6201171875
0.6201171875
0.615234375
0.615234375
0.6103515625
0.60546875
0.60546875
0.6005859375
0.6005859375
0.595703125
0.595703125
0.595703125
0.5908203125
0.5859375
0.5859375
0.5859375
0.5810546875
0.5810546875
0.5810546875
0.576171875
0.576171875
0.576171875
0.5712890625
0.5712890625
0.56640625
0.56640625
0.56640625
0.5615234375
0.5615234375
0.556640625
0.556640625
0.5615234375
0.556640625
0.5615234375
0.5712890625
0.576171875
0.5859375
0.5908203125
0.6005859375
0.6103515625
0.615234375
0.6298828125
0.634765625
0.64453125
0.654296875
0.6591796875
0.6689453125
0.673828125
0.6787109375
0.68359375
0.6884765625
0.693359375
0.6982421875
0.6982421875
0.6982421875
0.703125
0.6982421875
0.6982421875
0.6982421875
0.6982421875
0.6982421875
0.693359375
0.6884765625
0.68359375
0.6787109375
0.6787109375
0.673828125
0.673828125
0.673828125
0.6689453125
0.6640625
0.6640625
0.6591796875
0.654296875
0.6494140625
0.6494140625
0.64453125
0.6396484375
0.6396484375
0.6396484375
0.634765625
0.6298828125
0.6298828125
0.625
0.6201171875
0.6201171875
0.615234375
0.615234375
0.6103515625
0.6103515625
0.60546875
0.6005859375
0.6005859375
0.595703125
0.595703125
0.5908203125
0.5908203125
0.5908203125
0.5859375
0.5859375
0.5810546875
0.576171875
0.5810546875
0.5810546875
0.576171875
0.576171875
0.5712890625
0.5712890625
0.5712890625
0.5712890625
0.56640625
0.56640625
0.56640625
0.5615234375
0.5615234375
0.5615234375
0.5615234375
0.556640625
0.556640625
0.5615234375
0.5615234375
0.56640625
0.5712890625
0.576171875
0.5859375
0.595703125
0.60546875
0.6103515625
0.6201171875
0.6298828125
0.6396484375
0.64453125
0.6591796875
0.6640625
0.6689453125
0.673828125
0.68359375
0.6884765625
0.6884765625
0.693359375
0.6982421875
0.6982421875
0.6982421875
0.6982421875
0.703125
0.703125
0.6982421875
0.6982421875
0.6982421875
0.693359375
0.693359375
0.6884765625
0.68359375
0.68359375
0.6787109375
0.6787109375
0.673828125
0.673828125
0.6689453125
0.6689453125
0.6689453125
0.6640625
0.6591796875
0.6591796875
0.654296875
0.654296875
0.6494140625
0.64453125
0.64453125
0.6396484375
0.634765625
0.634765625
0.6298828125
0.6298828125
0.6298828125
0.6201171875
0.6201171875
0.615234375
0.615234375
0.6103515625
0.60546875
0.6005859375
0.6005859375
0.6005859375
0.595703125
0.595703125
0.5908203125
0.5908203125
0.5859375
0.5859375
0.5810546875
0.576171875
0.576171875
0.576171875
0.576171875
0.576171875
0.5712890625
0.5712890625
0.56640625
0.5615234375
0.56640625
0.5615234375
0.556640625
0.5615234375
0.556640625
0.556640625
0.5615234375
0.556640625
0.56640625
0.56640625
0.576171875
0.5859375
0.5908203125
0.6005859375
0.6103515625
0.615234375
0.6298828125
0.634765625
0.64453125
0.6494140625
0.654296875
0.6640625
0.6689453125
0.673828125
0.6787109375
0.68359375
0.68359375
0.6884765625
0.6884765625
0.693359375
0.693359375
0.6884765625
0.693359375
0.6884765625
0.68359375
0.68359375
0.6787109375
0.6787109375
0.673828125
0.6689453125
0.6689453125
0.6640625
0.6591796875
0.6591796875
0.654296875
0.654296875
0.6494140625
0.6494140625
0.6494140625
0.64453125
0.64453125
0.6396484375
0.6396484375
0.634765625
0.6298828125
0.6298828125
0.625
0.6201171875
0.6201171875
0.615234375
0.615234375
0.6103515625
0.6103515625
0.60546875
0.60546875
0.6005859375
0.595703125
0.5908203125
0.5908203125
0.5859375
0.5859375
0.5810546875
0.5810546875
0.576171875
0.576171875
0.5712890625
0.5712890625
0.5712890625
0.56640625
0.56640625
0.5615234375
0.5615234375
0.556640625
0.556640625
0.5517578125
0.5517578125
0.5517578125
0.5517578125
0.5517578125
0.546875
0.546875
0.546875
0.546875
0.546875
0.546875
0.546875
0.546875
0.5517578125
0.556640625
0.5615234375
0.56640625
0.576171875
0.5859375
0.595703125
0.6005859375
0.6103515625
0.6201171875
0.625
0.634765625
0.6396484375
0.64453125
0.6494140625
0.654296875
0.6591796875
0.6640625
0.6640625
0.6689453125
0.673828125
0.6689453125
0.673828125
0.673828125
0.673828125
0.6689453125
0.6689453125
0.6689453125
0.6640625
0.6591796875
0.6591796875
0.654296875
0.6494140625
0.6494140625
0.64453125
0.64453125
0.64453125
0.6396484375
0.6396484375
0.6396484375
0.634765625
0.634765625
0.6298828125
0.6298828125
0.6298828125
0.6298828125
0.625
0.6201171875
0.6201171875
0.615234375
0.615234375
0.615234375
0.6103515625
0.6103515625
0.6103515625
0.60546875
0.60546875
0.6005859375
0.6005859375
0.595703125
0.595703125
0.595703125
0.595703125
0.5908203125
0.5908203125
0.5908203125
0.5859375
0.5859375
0.5859375
0.5810546875
0.5810546875
0.5810546875
0.576171875
0.5810546875
0.576171875
0.576171875
0.576171875
0.576171875
0.576171875
0.576171875
0.5712890625
0.5712890625
0.5712890625
0.5712890625
0.56640625
0.56640625
0.56640625
0.56640625
0.56640625
0.56640625
0.56640625
0.56640625
0.5712890625
0.576171875
0.5810546875
0.5908203125
0.595703125
0.60546875
0.6103515625
0.625
0.634765625
0.6396484375
0.64453125
0.654296875
0.6591796875
0.6640625
0.6689453125
0.673828125
0.6787109375
0.6787109375
0.68359375
0.68359375
0.68359375
0.68359375
0.68359375
0.68359375
0.68359375
0.6787109375
0.6787109375
0.673828125
0.6689453125
0.6689453125
0.6640625
0.6591796875
0.6591796875
0.654296875
0.6494140625
0.6494140625
0.6494140625
0.6494140625
0.64453125
0.6396484375
0.6396484375
0.634765625
0.634765625
0.634765625
0.6298828125
0.6298828125
0.6298828125
0.625
0.625
0.6201171875
0.615234375
0.615234375
0.6103515625
0.6103515625
0.60546875
0.6005859375
0.6005859375
0.595703125
0.595703125
0.595703125
0.5908203125
0.5908203125
0.5859375
0.5859375
0.5908203125
0.5859375
0.5859375
0.5810546875
0.5810546875
0.5810546875
0.5810546875
0.5810546875
0.5810546875
0.576171875
0.576171875
0.576171875
0.5712890625
0.5712890625
0.5712890625
0.56640625
0.56640625
0.5615234375
0.5615234375
0.556640625
0.5517578125
0.5517578125
0.5517578125
0.546875
0.546875
0.5419921875
0.5419921875
0.5419921875
0.537109375
0.537109375
0.5419921875
0.5419921875
0.5517578125
0.556640625
0.56640625
0.5712890625
0.5859375
0.595703125
0.6005859375
0.6103515625
0.6201171875
0.625
0.634765625
0.6396484375
0.64453125
0.6494140625
0.6494140625
0.654296875
0.6591796875
0.6591796875
0.6591796875
0.6640625
0.6640625
0.6640625
0.6640625
0.6640625
0.6591796875
0.6591796875
0.6591796875
0.6591796875
0.654296875
0.654296875
0.654296875
0.6494140625
0.6494140625
0.6494140625
0.64453125
0.64453125
0.64453125
0.64453125
0.6396484375
0.64453125
0.6396484375
0.6396484375
0.6396484375
0.634765625
0.634765625
0.634765625
0.6298828125
0.634765625
0.6298828125
0.6298828125
0.6298828125
0.625
0.6201171875
0.6201171875
0.6201171875
0.6201171875
0.6201171875
0.6201171875
0.625
0.6298828125
0.6298828125
0.6298828125
0.6298828125
0.6298828125
0.6298828125
0.6298828125
0.6298828125
0.6298828125
0.625
0.6298828125
0.625
0.625
0.6201171875
0.6201171875
0.615234375
0.615234375
0.6103515625
0.6103515625
0.60546875
0.60546875
0.60546875
0.60546875
0.60546875
0.6103515625
0.615234375
0.6201171875
0.6298828125
0.6396484375
0.64453125
0.654296875
0.6591796875
0.6640625
0.6689453125
0.673828125
0.6787109375
0.68359375
0.68359375
0.6884765625
0.6884765625
0.6884765625
0.693359375
0.693359375
0.693359375
0.693359375
0.6884765625
0.6884765625
0.6884765625
0.68359375
0.6787109375
0.6787109375
0.6689453125
0.6689453125
0.6689453125
0.6640625
0.6591796875
0.6591796875
0.654296875
0.654296875
0.654296875
0.654296875
0.6494140625
0.6494140625
0.64453125
0.64453125
0.64453125
0.64453125
0.64453125
0.6396484375
0.6396484375
0.634765625
0.634765625
0.634765625
0.634765625
0.6298828125
0.6298828125
0.625
0.6201171875
0.6201171875
0.615234375
0.615234375
0.6103515625
0.6103515625
0.60546875
0.60546875
0.6005859375
0.6005859375
0.595703125
0.595703125
0.5908203125
0.5859375
0.5859375
0.5859375
0.5810546875
0.5810546875
0.5810546875
0.576171875
0.576171875
0.5712890625
0.5712890625
0.5712890625
0.56640625
0.56640625
0.56640625
0.5615234375
0.5615234375
0.5615234375
0.556640625
0.556640625
0.556640625
0.556640625
0.5615234375
0.5712890625
0.576171875
0.5859375
0.595703125
0.60546875
0.615234375
0.625
0.634765625
0.64453125
0.654296875
0.6591796875
0.6689453125
0.673828125
0.6787109375
0.68359375
0.693359375
0.693359375
0.6982421875
0.703125
0.703125
0.7080078125
0.7080078125
0.7080078125
0.7080078125
0.7080078125
0.7080078125
0.703125
0.6982421875
0.693359375
0.693359375
0.6884765625
0.68359375
0.6787109375
0.6787109375
0.673828125
0.6689453125
0.6689453125
0.6640625
0.6591796875
0.6591796875
0.654296875
0.654296875
0.6494140625
0.6494140625
0.6494140625
0.6494140625
0.6494140625
0.6494140625
0.6494140625
0.6494140625
0.6494140625
0.6494140625
0.6494140625
0.6494140625
0.6494140625
0.6494140625
0.6494140625
0.6494140625
0.6494140625
0.6494140625
0.64453125
0.64453125
0.64453125
0.6396484375
0.6396484375
0.6396484375
0.6396484375
0.634765625
0.634765625
0.6298828125
0.6298828125
0.6298828125
0.625
0.625
0.625
0.6201171875
0.6201171875
0.615234375
0.615234375
0.6103515625
0.60546875
0.60546875
0.6005859375
0.6005859375
0.6005859375
0.6005859375
0.6005859375
0.60546875
0.6103515625
0.6201171875
0.6298828125
0.634765625
0.64453125
0.6591796875
0.6689453125
0.6787109375
0.68359375
0.693359375
0.6982421875
0.703125
0.712890625
0.7177734375
0.72265625
0.7275390625
0.7275390625
0.7373046875
0.732421875
0.7373046875
0.7373046875
0.7373046875
0.7373046875
0.7373046875
0.7373046875
0.7373046875
0.7275390625
0.7275390625
0.72265625
0.72265625
0.7177734375
0.712890625
0.7080078125
0.7080078125
0.6982421875
0.6982421875
0.693359375
0.6884765625
0.6884765625
0.68359375
0.68359375
0.6787109375
0.6787109375
0.673828125
0.673828125
0.6689453125
0.6689453125
0.6640625
0.6640625
0.6591796875
0.6591796875
0.654296875
0.6494140625
0.64453125
0.6396484375
0.634765625
0.6298828125
0.625
0.6201171875
0.615234375
0.60546875
0.6005859375
0.595703125
0.5908203125
0.5859375
0.576171875
0.5712890625
0.56640625
0.556640625
0.546875
0.546875
0.537109375
0.52734375
0.5224609375
0.517578125
0.5126953125
0.5078125
0.5029296875
0.498046875
0.4931640625
0.4931640625
0.498046875
0.498046875
0.5078125
0.517578125
0.52734375
0.537109375
0.546875
0.556640625
0.5712890625
0.576171875
0.5908203125
0.6005859375
0.60546875
0.6103515625
0.615234375
0.625
0.6298828125
0.634765625
0.6396484375
0.6396484375
0.6396484375
0.64453125
0.6396484375
0.64453125
0.6396484375
0.6298828125
0.6298828125
0.6201171875
0.615234375
0.6103515625
0.6005859375
0.6005859375
0.5908203125
0.5859375
0.5859375
0.5810546875
0.576171875
0.576171875
0.5712890625
0.56640625
0.5615234375
0.556640625
0.5517578125
0.546875
0.5419921875
0.5419921875
0.5322265625
0.52734375
0.52734375
0.517578125
0.517578125
0.5126953125
0.5126953125
0.5126953125
0.5078125
0.5078125
0.5029296875
0.5078125
0.5078125
0.5029296875
0.5029296875
0.5078125
0.5029296875
0.5029296875
0.5029296875
0.5029296875
0.5029296875
0.5029296875
0.5029296875
0.5029296875
0.5029296875
0.498046875
0.5029296875
0.498046875
0.5029296875
0.5029296875
0.498046875
0.5029296875
0.5029296875
0.5126953125
0.517578125
0.52734375
0.537109375
0.5517578125
0.556640625
0.5712890625
0.5810546875
0.5908203125
0.60546875
0.6103515625
0.6201171875
0.6298828125
0.634765625
0.6396484375
0.64453125
0.6494140625
0.654296875
0.654296875
0.6591796875
0.6640625
0.6689453125
0.6689453125
0.673828125
0.673828125
0.673828125
0.673828125
0.673828125
0.673828125
0.673828125
0.673828125
0.6689453125
0.6689453125
0.6689453125
0.6640625
0.6640625
0.6640625
0.6640625
0.6591796875
0.6591796875
0.6591796875
0.6591796875
0.6591796875
0.654296875
0.654296875
0.654296875
0.6494140625
0.6494140625
0.6494140625
0.6494140625
0.6494140625
0.6494140625
0.6494140625
0.6494140625
0.6494140625
0.6494140625
0.6494140625
0.6494140625
0.6494140625
0.6494140625
0.6494140625
0.64453125
0.6396484375
0.634765625
0.6298828125
0.625
0.6201171875
0.6103515625
0.60546875
0.6005859375
0.595703125
0.5859375
0.5810546875
0.576171875
0.5712890625
0.56640625
0.56640625
0.5615234375
0.5615234375
0.56640625
0.5712890625
0.576171875
0.5810546875
0.5908203125
0.595703125
0.60546875
0.6103515625
0.615234375
0.6201171875
0.6298828125
0.634765625
0.64453125
0.6494140625
0.654296875
0.6591796875
0.6640625
0.6689453125
0.673828125
0.6787109375
0.68359375
0.6884765625
0.6884765625
0.6884765625
0.6884765625
0.6884765625
0.68359375
0.68359375
0.68359375
0.6787109375
0.6787109375
0.673828125
0.6689453125
0.6689453125
0.6640625
0.6591796875
0.6591796875
0.654296875
0.654296875
0.6494140625
0.6494140625
0.6494140625
0.6494140625
0.6494140625
0.6494140625
0.6494140625
0.6494140625
0.6494140625
0.654296875
0.654296875
0.654296875
0.654296875
0.6494140625
0.6494140625
0.6494140625
0.64453125
0.64453125
0.634765625
0.634765625
0.6298828125
0.625
0.6201171875
0.615234375
0.60546875
0.60546875
0.6005859375
0.595703125
0.5908203125
0.5908203125
0.5859375
0.5908203125
0.5859375
0.5908203125
0.5908203125
0.5908203125
0.5908203125
0.595703125
0.595703125
0.60546875
0.6103515625
0.615234375
0.6201171875
0.6298828125
0.634765625
0.6396484375
0.64453125
0.6494140625
0.654296875
0.6591796875
0.6591796875
0.6689453125
0.6689453125
0.673828125
0.673828125
0.68359375
0.6884765625
0.693359375
0.6982421875
0.6982421875
0.703125
0.7080078125
0.7080078125
0.7080078125
0.7080078125
0.7080078125
0.712890625
0.7080078125
0.7080078125
0.7080078125
0.703125
0.703125
0.6982421875
0.693359375
0.693359375
0.6884765625
0.68359375
0.6787109375
0.673828125
0.6689453125
0.6640625
0.6640625
0.6591796875
0.654296875
0.6494140625
0.64453125
0.6396484375
0.6396484375
0.6298828125
0.6298828125
0.625
0.6201171875
0.615234375
0.6103515625
0.60546875
0.6005859375
0.5908203125
0.5859375
0.5810546875
0.5712890625
0.56640625
0.556640625
0.546875
0.5419921875
0.5322265625
0.52734375
0.5224609375
0.5126953125
0.5078125
0.5029296875
0.498046875
0.4931640625
0.48828125
0.4833984375
0.478515625
0.478515625
0.4736328125
0.4736328125
0.46875
0.4736328125
0.4736328125
0.478515625
0.48828125
0.498046875
0.5126953125
0.5224609375
0.537109375
0.5517578125
0.56640625
0.576171875
0.595703125
0.60546875
0.615234375
0.625
0.634765625
0.6396484375
0.64453125
0.654296875
0.654296875
0.6591796875
0.6640625
0.6640625
0.6640625
0.6689453125
0.6640625
0.6689453125
0.6640625
0.6591796875
0.6591796875
0.654296875
0.6494140625
0.64453125
0.64453125
0.6396484375
0.6396484375
0.634765625
0.6298828125
0.6298828125
0.625
0.6201171875
0.6201171875
0.6201171875
0.615234375
0.6103515625
0.6103515625
0.6103515625
0.60546875
0.60546875
0.6005859375
0.6005859375
0.6005859375
0.6005859375
0.595703125
0.595703125
0.5908203125
0.5908203125
0.5859375
0.5859375
0.5810546875
0.5810546875
0.5810546875
0.5810546875
0.576171875
0.576171875
0.576171875
0.5712890625
0.5712890625
0.5712890625
0.5712890625
0.56640625
0.56640625
0.5615234375
0.5615234375
0.5615234375
0.5615234375
0.5615234375
0.5615234375
0.56640625
0.5712890625
0.5810546875
0.5859375
0.6005859375
0.60546875
0.615234375
0.6298828125
0.634765625
0.6396484375
0.6494140625
0.654296875
0.6591796875
0.6689453125
0.6689453125
0.673828125
0.673828125
0.6787109375
0.6787109375
0.68359375
0.68359375
0.6787109375
0.6787109375
0.6787109375
0.673828125
0.673828125
0.6689453125
0.6640625
0.6640625
0.6591796875
0.6591796875
0.6591796875
0.654296875
0.6494140625
0.6494140625
0.64453125
0.64453125
0.6396484375
0.6396484375
0.634765625
0.634765625
0.6298828125
0.6298828125
0.6298828125
0.625
0.625
0.625
0.6201171875
0.6201171875
0.6201171875
0.615234375
0.615234375
0.6103515625
0.60546875
0.60546875
0.60546875
0.6005859375
0.595703125
0.5908203125
0.5908203125
0.5908203125
0.5859375
0.5810546875
0.5810546875
0.576171875
0.576171875
0.5712890625
0.5712890625
0.5712890625
0.56640625
0.56640625
0.5615234375
0.5615234375
0.5615234375
0.5615234375
0.5712890625
0.576171875
0.5810546875
0.5859375
0.6005859375
0.60546875
0.615234375
0.6201171875
0.6298828125
0.6396484375
0.64453125
0.6494140625
0.6591796875
0.6640625
0.6689453125
0.673828125
0.6787109375
0.6787109375
0.68359375
0.68359375
0.6884765625
0.6884765625
0.6884765625
0.6884765625
0.6884765625
0.68359375
0.68359375
0.68359375
0.68359375
0.6787109375
0.673828125
0.6689453125
0.6689453125
0.6689453125
0.6640625
0.6591796875
0.6591796875
0.654296875
0.654296875
0.6494140625
0.6494140625
0.6494140625
0.64453125
0.64453125
0.64453125
0.6396484375
0.6396484375
0.634765625
0.634765625
0.634765625
0.6298828125
0.6298828125
0.6298828125
0.625
0.625
0.6201171875
0.6201171875
0.615234375
0.615234375
0.6103515625
0.6103515625
0.60546875
0.60546875
0.6005859375
0.6005859375
0.6005859375
0.595703125
0.595703125
0.5908203125
0.5908203125
0.5908203125
0.5859375
0.5908203125
0.5859375
0.5908203125
0.5908203125
0.6005859375
0.60546875
0.615234375
0.6201171875
0.6298828125
0.6396484375
0.6494140625
0.6591796875
0.6689453125
0.673828125
0.68359375
0.6884765625
0.6982421875
0.703125
0.7080078125
0.712890625
0.7177734375
0.72265625
0.72265625
0.72265625
0.7275390625
0.7275390625
0.7275390625
0.72265625
0.72265625
0.72265625
0.7177734375
0.712890625
0.712890625
0.7080078125
0.703125
0.6982421875
0.6982421875
0.693359375
0.6884765625
0.68359375
0.68359375
0.6787109375
0.673828125
0.673828125
0.6689453125
0.6689453125
0.6640625
0.6591796875
0.6591796875
0.654296875
0.654296875
0.6494140625
0.64453125
0.64453125
0.6396484375
0.6396484375
0.634765625
0.634765625
0.6298828125
0.6298828125
0.6298828125
0.625
0.625
0.6201171875
0.6201171875
0.6201171875
0.615234375
0.615234375
0.6103515625
0.6103515625
0.6103515625
0.6103515625
0.60546875
0.60546875
0.6005859375
0.6005859375
0.595703125
0.595703125
0.5908203125
0.5859375
0.5908203125
0.5908203125
0.595703125
0.6005859375
0.60546875
0.6103515625
0.6201171875
0.634765625
0.6396484375
0.6494140625
0.6591796875
0.6689453125
0.673828125
0.6787109375
0.6884765625
0.693359375
0.6982421875
0.6982421875
0.703125
0.7080078125
0.7080078125
0.703125
0.7080078125
0.7080078125
0.7080078125
0.7080078125
0.703125
0.703125
0.6982421875
0.693359375
0.693359375
0.68359375
0.68359375
0.673828125
0.6689453125
0.6640625
0.6591796875
0.6591796875
0.654296875
0.64453125
0.64453125
0.634765625
0.634765625
0.6298828125
0.6298828125
0.625
0.6201171875
0.615234375
0.6103515625
0.6005859375
0.595703125
0.595703125
0.5908203125
0.5859375
0.5810546875
0.576171875
0.576171875
0.5712890625
0.56640625
0.5615234375
0.556640625
0.556640625
0.5517578125
0.5517578125
0.546875
0.546875
0.546875
0.546875
0.5419921875
0.5419921875
0.5419921875
0.5419921875
0.537109375
0.537109375
0.537109375
0.5322265625
0.5322265625
0.52734375
0.52734375
0.52734375
0.5224609375
0.5224609375
0.5322265625
0.537109375
0.5419921875
0.5517578125
0.5615234375
0.5712890625
0.5810546875
0.5908203125
0.6005859375
0.60546875
0.615234375
0.625
0.6298828125
0.634765625
0.6396484375
0.64453125
0.6494140625
0.654296875
0.654296875
0.6591796875
0.6591796875
0.6591796875
0.6591796875
0.654296875
0.654296875
0.654296875
0.654296875
0.6494140625
0.6494140625
0.64453125
0.64453125
0.6396484375
0.634765625
0.634765625
0.6298828125
0.6298828125
0.625
0.6201171875
0.6201171875
0.615234375
0.615234375
0.615234375
0.6103515625
0.60546875
0.6005859375
0.6005859375
0.6005859375
0.595703125
0.595703125
0.5908203125
0.5859375
0.5859375
0.5859375
0.5859375
0.5810546875
0.576171875
0.576171875
0.5712890625
0.5712890625
0.5712890625
0.56640625
0.56640625
0.56640625
0.5615234375
0.5615234375
0.556640625
0.556640625
0.556640625
0.5517578125
0.5517578125
0.556640625
0.5517578125
0.546875
0.546875
0.546875
0.546875
0.5419921875
0.5419921875
0.5419921875
0.537109375
0.537109375
0.537109375
0.5419921875
0.5517578125
0.556640625
0.56640625
0.576171875
0.5859375
0.6005859375
0.6103515625
0.6201171875
0.6298828125
0.6396484375
0.64453125
0.654296875
0.654296875
0.6640625
0.6689453125
0.6689453125
0.673828125
0.6787109375
0.673828125
0.6787109375
0.6787109375
0.6787109375
0.6787109375
0.673828125
0.673828125
0.6689453125
0.6689453125
0.6689453125
0.6640625
0.6640625
0.6591796875
0.654296875
0.654296875
0.6494140625
0.6494140625
0.6494140625
0.64453125
0.64453125
0.64453125
0.6396484375
0.6396484375
0.634765625
0.634765625
0.634765625
0.634765625
0.634765625
0.6298828125
0.6298828125
0.625
0.6201171875
0.6201171875
0.615234375
0.6103515625
0.6103515625
0.60546875
0.6005859375
0.595703125
0.595703125
0.5908203125
0.5859375
0.5859375
0.5859375
0.5810546875
0.5810546875
0.576171875
0.5712890625
0.5712890625
0.56640625
0.56640625
0.5615234375
0.5615234375
0.556640625
0.5517578125
0.5517578125
0.5517578125
0.5517578125
0.5517578125
0.556640625
0.56640625
0.5712890625
0.5810546875
0.5908203125
0.6005859375
0.6103515625
0.6201171875
0.6298828125
0.6396484375
0.64453125
0.654296875
0.6591796875
0.6640625
0.6689453125
0.673828125
0.6787109375
0.6787109375
0.68359375
0.68359375
0.6884765625
0.6884765625
0.6884765625
0.6884765625
0.6884765625
0.6884765625
0.68359375
0.68359375
0.68359375
0.6787109375
0.6787109375
0.673828125
0.673828125
0.6689453125
0.6689453125
0.6689453125
0.6640625
0.6640625
0.6591796875
0.654296875
0.654296875
0.6494140625
0.6494140625
0.64453125
0.64453125
0.6396484375
0.634765625
0.6298828125
0.6298828125
0.625
0.6201171875
0.615234375
0.6103515625
0.60546875
0.6005859375
0.6005859375
0.5908203125
0.5859375
0.5810546875
0.5810546875
0.5712890625
0.5712890625
0.56640625
0.5615234375
0.5615234375
0.556640625
0.556640625
0.5517578125
0.546875
0.5419921875
0.5419921875
0.537109375
0.537109375
0.5322265625
0.52734375
0.52734375
0.52734375
0.52734375
0.5224609375
0.52734375
0.5322265625
0.5419921875
0.546875
0.5615234375
0.56640625
0.576171875
0.5908203125
0.595703125
0.6103515625
0.6201171875
0.6298828125
0.634765625
0.6396484375
0.6494140625
0.654296875
0.6591796875
0.6640625
0.6689453125
0.673828125
0.673828125
0.673828125
0.6787109375
0.6787109375
0.673828125
0.6787109375
0.673828125
0.673828125
0.6689453125
0.6640625
0.6640625
0.6591796875
0.6591796875
0.654296875
0.654296875
0.654296875
0.6494140625
0.6494140625
0.6494140625
0.64453125
0.64453125
0.64453125
0.6396484375
0.6396484375
0.6396484375
0.634765625
0.634765625
0.634765625
0.634765625
0.634765625
0.6298828125
0.6298828125
0.6298828125
0.6201171875
0.6201171875
0.6201171875
0.615234375
0.6201171875
0.6103515625
0.6103515625
0.6103515625
0.60546875
0.60546875
0.6005859375
0.595703125
0.6005859375
0.595703125
0.595703125
0.5908203125
0.5908203125
0.5908203125
0.5859375
0.5859375
0.5810546875
0.5810546875
0.5810546875
0.5810546875
0.576171875
0.5810546875
0.5810546875
0.5859375
0.5908203125
0.595703125
0.60546875
0.615234375
0.625
0.6298828125
0.6396484375
0.6494140625
0.6591796875
0.6640625
0.673828125
0.6787109375
0.6787109375
0.68359375
0.68359375
0.6884765625
0.6884765625
0.6884765625
0.693359375
0.6884765625
0.6884765625
0.6884765625
0.6884765625
0.68359375
0.68359375
0.6787109375
0.6787109375
0.6787109375
0.673828125
0.6689453125
0.6689453125
0.6689453125
0.6689453125
0.6640625
0.6640625
0.6591796875
0.6591796875
0.6591796875
0.6591796875
0.6640625
0.6591796875
0.6591796875
0.6591796875
0.654296875
0.654296875
0.654296875
0.6494140625
0.64453125
0.64453125
0.6396484375
0.6396484375
0.634765625
0.634765625
0.6298828125
0.6298828125
0.625
0.6201171875
0.6201171875
0.6201171875
0.615234375
0.6103515625
0.60546875
0.60546875
0.6005859375
0.6005859375
0.595703125
0.595703125
0.5908203125
0.5859375
0.5859375
0.5810546875
0.5810546875
0.576171875
0.5712890625
0.5712890625
0.56640625
0.56640625
0.5615234375
0.556640625
0.5615234375
0.5615234375
0.56640625
0.5712890625
0.5810546875
0.5859375
0.595703125
0.6005859375
0.6103515625
0.6201171875
0.6298828125
0.6396484375
0.6494140625
0.654296875
0.6591796875
0.6640625
0.6689453125
0.673828125
0.68359375
0.68359375
0.6884765625
0.6884765625
0.693359375
0.6884765625
0.693359375
0.6884765625
0.6884765625
0.6884765625
0.6884765625
0.6884765625
0.68359375
0.6787109375
0.6787109375
0.673828125
0.673828125
0.6689453125
0.6689453125
0.6640625
0.6640625
0.6591796875
0.654296875
0.654296875
0.654296875
0.654296875
0.6494140625
0.64453125
0.64453125
0.6396484375
0.6396484375
0.634765625
0.6298828125
0.6298828125
0.625
0.625
0.6201171875
0.615234375
0.615234375
0.6103515625
0.60546875
0.6005859375
0.6005859375
0.595703125
0.5908203125
0.5908203125
0.5908203125
0.5859375
0.5859375
0.5810546875
0.5810546875
0.5810546875
0.576171875
0.576171875
0.576171875
0.5712890625
0.5712890625
0.5712890625
0.5712890625
0.56640625
0.56640625
0.5712890625
0.56640625
0.56640625
0.56640625
0.56640625
0.56640625
0.56640625
0.56640625
0.56640625
0.56640625
0.5712890625
0.5810546875
0.5859375
0.595703125
0.6103515625
0.6201171875
0.6298828125
0.6396484375
0.6494140625
0.654296875
0.6640625
0.6689453125
0.6787109375
0.68359375
0.6884765625
0.693359375
0.6982421875
0.703125
0.703125
0.7080078125
0.7080078125
0.7080078125
0.703125
0.703125
0.6982421875
0.6982421875
0.6884765625
0.68359375
0.68359375
0.6787109375
0.6689453125
0.6689453125
0.6591796875
0.6591796875
0.654296875
0.6494140625
0.64453125
0.6396484375
0.6396484375
0.634765625
0.6298828125
0.625
0.6201171875
0.6201171875
0.615234375
0.6103515625
0.6103515625
0.60546875
0.6005859375
0.595703125
0.595703125
0.5908203125
0.5859375
0.5810546875
0.5810546875
0.576171875
0.5712890625
0.5712890625
0.56640625
0.56640625
0.5615234375
0.5615234375
0.5517578125
0.5517578125
0.5517578125
0.546875
0.546875
0.546875
0.546875
0.5419921875
0.537109375
0.5419921875
0.5419921875
0.537109375
0.5322265625
0.537109375
0.5322265625
0.5322265625
0.5322265625
0.52734375
0.5322265625
0.5322265625
0.537109375
0.537109375
0.546875
0.556640625
0.56640625
0.5712890625
0.5810546875
0.595703125
0.6005859375
0.60546875
0.615234375
0.625
0.6298828125
0.6396484375
0.64453125
0.6494140625
0.6494140625
0.6591796875
0.6591796875
0.6640625
0.6689453125
0.6689453125
0.6689453125
0.6689453125
0.6689453125
0.6689453125
0.6689453125
0.6640625
0.6640625
0.6640625
0.6591796875
0.6591796875
0.654296875
0.654296875
0.6494140625
0.6494140625
0.6494140625
0.6494140625
0.6494140625
0.6494140625
0.6494140625
0.6494140625
0.64453125
0.64453125
0.64453125
0.64453125
0.6396484375
0.6396484375
0.6396484375
0.634765625
0.634765625
0.634765625
0.634765625
0.6298828125
0.625
0.625
0.6201171875
0.6201171875
0.615234375
0.6103515625
0.6103515625
0.60546875
0.60546875
0.6005859375
0.6005859375
0.595703125
0.5908203125
0.5908203125
0.5859375
0.5859375
0.5810546875
0.5810546875
0.576171875
0.5712890625
0.5712890625
0.5712890625
0.56640625
0.56640625
0.5615234375
0.5615234375
0.5615234375
0.5615234375
0.5615234375
0.56640625
0.5712890625
0.5712890625
0.5810546875
0.5908203125
0.595703125
0.60546875
0.615234375
0.6201171875
0.6298828125
0.6396484375
0.64453125
0.654296875
0.654296875
0.6640625
0.6689453125
0.673828125
0.6787109375
0.6787109375
0.68359375
0.68359375
0.68359375
0.68359375
0.6884765625
0.68359375
0.68359375
0.68359375
0.68359375
0.6787109375
0.6787109375
0.6787109375
0.673828125
0.673828125
0.673828125
0.6689453125
0.6689453125
0.6689453125
0.6640625
0.6640625
0.6591796875
0.654296875
0.654296875
0.6494140625
0.6494140625
0.64453125
0.6396484375
0.634765625
0.6298828125
0.6298828125
0.625
0.6201171875
0.615234375
0.6103515625
0.6005859375
0.6005859375
0.595703125
0.5908203125
0.5908203125
0.5859375
0.5810546875
0.5810546875
0.576171875
0.5712890625
0.5712890625
0.56640625
0.56640625
0.5615234375
0.556640625
0.5517578125
0.5517578125
0.546875
0.546875
0.5419921875
0.5419921875
0.537109375
0.537109375
0.5322265625
0.5322265625
0.52734375
0.52734375
0.52734375
0.52734375
0.5224609375
0.517578125
0.5224609375
0.517578125
0.5224609375
0.5224609375
0.52734375
0.52734375
0.537109375
0.546875
0.5517578125
0.5615234375
0.56640625
0.576171875
0.5859375
0.5908203125
0.6005859375
0.6103515625
0.615234375
0.6201171875
0.625
0.6298828125
0.634765625
0.6396484375
0.6396484375
0.64453125
0.6494140625
0.6494140625
0.654296875
0.654296875
0.6494140625
0.654296875
0.6494140625
0.6494140625
0.6494140625
0.64453125
0.64453125
0.6396484375
0.6396484375
0.634765625
0.634765625
0.6298828125
0.6298828125
0.6298828125
0.625
0.6298828125
0.625
0.625
0.6201171875
0.6201171875
0.6201171875
0.615234375
0.615234375
0.6103515625
0.6103515625
0.60546875
0.60546875
0.6005859375
0.6005859375
0.6005859375
0.595703125
0.595703125
0.595703125
0.5908203125
0.5908203125
0.5859375
0.5859375
0.5859375
0.5859375
0.5810546875
0.576171875
0.5810546875
0.576171875
0.576171875
0.576171875
0.5712890625
0.5712890625
0.5712890625
0.56640625
0.56640625
0.56640625
0.5615234375
0.5615234375
0.556640625
0.5615234375
0.556640625
0.556640625
0.556640625
0.5517578125
0.5517578125
0.5517578125
0.5517578125
0.5517578125
0.5517578125
0.556640625
0.5615234375
0.56640625
0.5712890625
0.5810546875
0.5859375
0.595703125
0.6005859375
0.6103515625
0.615234375
0.6201171875
0.6298828125
0.6298828125
0.634765625
0.64453125
0.64453125
0.6494140625
0.654296875
0.654296875
0.6591796875
0.6591796875
0.6591796875
0.6591796875
0.6591796875
0.6591796875
0.6591796875
0.654296875
0.654296875
0.6494140625
0.6494140625
0.64453125
0.64453125
0.64453125
0.6396484375
0.6396484375
0.634765625
0.634765625
0.634765625
0.634765625
0.6298828125
0.6298828125
0.6298828125
0.625
0.625
0.6201171875
0.6201171875
0.6201171875
0.615234375
0.615234375
0.6103515625
0.6103515625
0.60546875
0.60546875
0.6005859375
0.6005859375
0.6005859375
0.595703125
0.595703125
0.595703125
0.5908203125
0.5908203125
0.5859375
0.5859375
0.5810546875
0.5810546875
0.576171875
0.576171875
0.576171875
0.5712890625
0.56640625
0.56640625
0.5615234375
0.56640625
0.5615234375
0.556640625
0.556640625
0.5517578125
0.5517578125
0.5517578125
0.5517578125
0.5517578125
0.5517578125
0.5517578125
0.5615234375
0.5615234375
0.5712890625
0.576171875
0.5810546875
0.5908203125
0.6005859375
0.60546875
0.615234375
0.6201171875
0.6298828125
0.634765625
0.634765625
0.64453125
0.6494140625
0.654296875
0.654296875
0.6591796875
0.6640625
0.6689453125
0.6689453125
0.6689453125
0.6689453125
0.6689453125
0.6689453125
0.6689453125
0.6689453125
0.6689453125
0.6640625
0.6640625
0.6591796875
0.6591796875
0.654296875
0.654296875
0.654296875
0.654296875
0.6494140625
0.6494140625
0.6494140625
0.64453125
0.64453125
0.6396484375
0.6396484375
0.634765625
0.634765625
0.634765625
0.6298828125
0.6298828125
0.625
0.6201171875
0.6201171875
0.6201171875
0.615234375
0.615234375
0.6103515625
0.60546875
0.60546875
0.595703125
0.595703125
0.5908203125
0.5908203125
0.5908203125
0.5810546875
0.576171875
0.576171875
0.5712890625
0.5712890625
0.5712890625
0.56640625
0.5615234375
0.5615234375
0.556640625
0.556640625
0.5517578125
0.5517578125
0.546875
0.5419921875
0.5419921875
0.537109375
0.537109375
0.5322265625
0.5322265625
0.5322265625
0.5322265625
0.5322265625
0.537109375
0.5419921875
0.546875
0.5517578125
0.556640625
0.56640625
0.5712890625
0.5810546875
0.5859375
0.5908203125
0.6005859375
0.60546875
0.6103515625
0.615234375
0.6201171875
0.625
0.6298828125
0.6298828125
0.634765625
0.6396484375
0.6396484375
0.6396484375
0.6396484375
0.6396484375
0.6396484375
0.6396484375
0.634765625
0.634765625
0.6298828125
0.6298828125
0.6298828125
0.6298828125
0.6298828125
0.625
0.6201171875
0.6201171875
0.6201171875
0.615234375
0.6201171875
0.615234375
0.615234375
0.615234375
0.615234375
0.6103515625
0.6103515625
0.6103515625
0.6103515625
0.6103515625
0.60546875
0.60546875
0.6005859375
0.60546875
0.6005859375
0.6005859375
0.6005859375
0.6005859375
0.595703125
0.595703125
0.5908203125
0.5908203125
0.5908203125
0.5908203125
0.5859375
0.5859375
0.5859375
0.5810546875
0.5810546875
0.5810546875
0.5810546875
0.5810546875
0.5810546875
0.576171875
0.5810546875
0.576171875
0.576171875
0.576171875
0.576171875
0.5810546875
0.5810546875
0.5859375
0.5908203125
0.595703125
0.6005859375
0.6103515625
0.615234375
0.625
0.6298828125
0.6396484375
0.64453125
0.6494140625
0.654296875
0.6591796875
0.6689453125
0.673828125
0.6787109375
0.68359375
0.6884765625
0.6884765625
0.693359375
0.693359375
0.6982421875
0.6982421875
0.6982421875
0.6982421875
0.6982421875
0.6982421875
0.693359375
0.6982421875
0.693359375
0.693359375
0.6884765625
0.6884765625
0.6884765625
0.68359375
0.68359375
0.6787109375
0.6787109375
0.6787109375
0.6787109375
0.673828125
0.673828125
0.6689453125
0.6689453125
0.6689453125
0.6640625
0.6591796875
0.6591796875
0.654296875
0.654296875
0.6494140625
0.6494140625
0.64453125
0.6396484375
0.6396484375
0.634765625
0.634765625
0.6298828125
0.6298828125
0.6298828125
0.625
0.6201171875
0.625
0.6201171875
0.6201171875
0.6201171875
0.615234375
0.615234375
0.615234375
0.6103515625
0.60546875
0.60546875
0.60546875
0.6005859375
0.595703125
0.595703125
0.5908203125
0.5908203125
0.5859375
0.5810546875
0.5859375
0.5810546875
0.5810546875
0.5859375
0.5859375
0.5908203125
0.595703125
0.6005859375
0.60546875
0.615234375
0.6201171875
0.6298828125
0.634765625
0.6396484375
0.64453125
0.654296875
0.6591796875
0.6640625
0.6689453125
0.673828125
0.673828125
0.6787109375
0.68359375
0.68359375
0.68359375
0.6884765625
0.6884765625
0.6884765625
0.6884765625
0.6884765625
0.6884765625
0.68359375
0.68359375
0.68359375
0.6787109375
0.68359375
0.6787109375
0.673828125
0.673828125
0.673828125
0.6689453125
0.6689453125
0.6689453125
0.6689453125
0.6689453125
0.6640625
0.6640625
0.6591796875
0.6591796875
0.6591796875
0.654296875
0.6494140625
0.6494140625
0.64453125
0.6396484375
0.634765625
0.634765625
0.6298828125
0.6298828125
0.625
0.6201171875
0.615234375
0.615234375
0.6103515625
0.6103515625
0.60546875
0.60546875
0.60546875
0.6005859375
0.6005859375
0.6005859375
0.595703125
0.595703125
0.595703125
0.5908203125
0.5908203125
0.5908203125
0.5908203125
0.5859375
0.5859375
0.5859375
0.5859375
0.5810546875
0.5859375
0.5810546875
0.5810546875
0.5810546875
0.576171875
0.576171875
0.576171875
0.576171875
0.5810546875
0.5810546875
0.5859375
0.5908203125
0.595703125
0.60546875
0.6103515625
0.6201171875
0.6298828125
0.6298828125
0.6396484375
0.6494140625
0.654296875
0.6591796875
0.6640625
0.6689453125
0.673828125
0.6787109375
0.6787109375
0.68359375
0.68359375
0.6884765625
0.6884765625
0.6884765625
0.6884765625
0.6884765625
0.68359375
0.68359375
0.6787109375
0.6787109375
0.6787109375
0.673828125
0.6689453125
0.6689453125
0.6640625
0.6591796875
0.6591796875
0.654296875
0.6494140625
0.6494140625
0.64453125
0.64453125
0.6396484375
0.6396484375
0.634765625
0.6298828125
0.6298828125
0.6298828125
0.625
0.6201171875
0.6201171875
0.615234375
0.6103515625
0.60546875
0.6005859375
0.6005859375
0.595703125
0.5908203125
0.5859375
0.5859375
0.5810546875
0.576171875
0.5712890625
0.56640625
0.5615234375
0.556640625
0.556640625
0.5517578125
0.5517578125
0.546875
0.546875
0.546875
0.5419921875
0.5419921875
0.537109375
0.537109375
0.537109375
0.5322265625
0.5322265625
0.5322265625
0.52734375
0.52734375
0.52734375
0.52734375
0.52734375
0.52734375
0.5224609375
0.5224609375
0.5224609375
0.5224609375
0.5224609375
0.52734375
0.5322265625
0.537109375
0.5419921875
0.546875
0.556640625
0.56640625
0.5712890625
0.5810546875
0.5908203125
0.6005859375
0.60546875
0.6103515625
0.6201171875
0.6298828125
0.634765625
0.6396484375
0.64453125
0.6494140625
0.6494140625
0.654296875
0.6591796875
0.6591796875
0.6640625
0.6591796875
0.6640625
0.6640625
0.6591796875
0.6591796875
0.6591796875
0.654296875
0.654296875
0.654296875
0.6494140625
0.6494140625
0.6494140625
0.6494140625
0.64453125
0.64453125
0.64453125
0.6396484375
0.6396484375
0.6396484375
0.6396484375
0.6396484375
0.6396484375
0.634765625
0.634765625
0.634765625
0.634765625
0.6298828125
0.6298828125
0.6298828125
0.625
0.625
0.625
0.6201171875
0.6201171875
0.6201171875
0.615234375
0.615234375
0.615234375
0.615234375
0.615234375
0.6103515625
0.6103515625
0.6103515625
0.60546875
0.60546875
0.60546875
0.60546875
0.60546875
0.6005859375
0.6005859375
0.6005859375
0.6005859375
0.6005859375
0.6005859375
0.595703125
0.595703125
0.595703125
0.595703125
0.5908203125
0.5908203125
0.5908203125
0.5859375
0.5859375
0.5859375
0.5810546875
0.5810546875
0.5810546875
0.5810546875
0.5859375
0.5908203125
0.595703125
0.6005859375
0.60546875
0.615234375
0.6201171875
0.6298828125
0.634765625
0.6396484375
0.6396484375
0.64453125
0.6494140625
0.654296875
0.6591796875
0.654296875
0.6640625
0.6640625
0.6640625
0.6689453125
0.6640625
0.6689453125
0.6640625
0.6640625
0.6640625
0.6591796875
0.654296875
0.654296875
0.6494140625
0.64453125
0.64453125
0.6396484375
0.6396484375
0.634765625
0.6298828125
0.6298828125
0.6298828125
0.625
0.625
0.6201171875
0.6201171875
0.615234375
0.615234375
0.615234375
0.6103515625
0.60546875
0.60546875
0.6005859375
0.6005859375
0.595703125
0.595703125
0.5908203125
0.5859375
0.5859375
0.5810546875
0.5810546875
0.576171875
0.5712890625
0.576171875
0.5712890625
0.5712890625
0.5712890625
0.56640625
0.5712890625
0.5712890625
0.56640625
0.56640625
0.5712890625
0.5712890625
0.5712890625
0.56640625
0.56640625
0.5712890625
0.5615234375
0.5615234375
0.5615234375
0.556640625
0.556640625
0.556640625
0.5517578125
0.5517578125
0.5517578125
0.546875
0.5517578125
0.5517578125
0.5517578125
0.556640625
0.5615234375
0.5712890625
0.576171875
0.5859375
0.5908203125
0.6005859375
0.60546875
0.615234375
0.625
0.6298828125
0.634765625
0.6396484375
0.6494140625
0.654296875
0.6591796875
0.6591796875
0.6689453125
0.673828125
0.673828125
0.6787109375
0.6787109375
0.673828125
0.6787109375
0.673828125
0.673828125
0.673828125
0.673828125
0.673828125
0.6689453125
0.6640625
0.6689453125
0.6640625
0.6640625
0.6640625
0.6591796875
0.6640625
0.6591796875
0.6591796875
0.6591796875
0.6591796875
0.654296875
0.654296875
0.654296875
0.654296875
0.6494140625
0.6494140625
0.6494140625
0.64453125
0.64453125
0.64453125
0.6396484375
0.6396484375
0.634765625
0.634765625
0.634765625
0.6298828125
0.6298828125
0.6298828125
0.6298828125
0.625
0.6201171875
0.6201171875
0.6201171875
0.6201171875
0.615234375
0.615234375
0.615234375
0.615234375
0.6103515625
0.6103515625
0.60546875
0.60546875
0.60546875
0.60546875
0.6005859375
0.6005859375
0.6005859375
0.60546875
0.60546875
0.6103515625
0.615234375
0.6201171875
0.6298828125
0.634765625
0.64453125
0.6494140625
0.6591796875
0.6591796875
0.6689453125
0.673828125
0.6787109375
0.68359375
0.68359375
0.6884765625
0.693359375
0.693359375
0.6982421875
0.693359375
0.693359375
0.693359375
0.693359375
0.6884765625
0.6884765625
0.68359375
0.6787109375
0.6787109375
0.6689453125
0.6689453125
0.6640625
0.6591796875
0.6591796875
0.654296875
0.654296875
0.6494140625
0.64453125
0.64453125
0.6396484375
0.634765625
0.634765625
0.6298828125
0.625
0.6201171875
0.615234375
0.615234375
0.6103515625
0.60546875
0.6005859375
0.6005859375
0.595703125
0.5908203125
0.5908203125
0.5859375
0.5810546875
0.576171875
0.576171875
0.5712890625
0.5712890625
0.56640625
0.56640625
0.5615234375
0.5615234375
0.556640625
0.5615234375
0.5517578125
0.5517578125
0.5517578125
0.5517578125
0.5517578125
0.546875
0.546875
0.5419921875
0.5419921875
0.5419921875
0.5419921875
0.5419921875
0.5419921875
0.546875
0.546875
0.5517578125
0.5615234375
0.5712890625
0.5810546875
0.5859375
0.595703125
0.6103515625
0.615234375
0.625
0.6298828125
0.6396484375
0.6494140625
0.654296875
0.6640625
0.6689453125
0.673828125
0.68359375
0.6884765625
0.693359375
0.6982421875
0.703125
0.703125
0.7080078125
0.7080078125
0.7080078125
0.7080078125
0.7080078125
0.7080078125
0.703125
0.703125
0.703125
0.703125
0.6982421875
0.6982421875
0.6982421875
0.6982421875
0.6982421875
0.693359375
0.693359375
0.693359375
0.693359375
0.6884765625
0.68359375
0.68359375
0.68359375
0.68359375
0.6787109375
0.6787109375
0.6787109375
0.673828125
0.673828125
0.6689453125
0.6640625
0.6640625
0.6591796875
0.6591796875
0.6591796875
0.654296875
0.654296875
0.6494140625
0.6494140625
0.64453125
0.6396484375
0.6396484375
0.6396484375
0.634765625
0.634765625
0.6298828125
0.6298828125
0.6298828125
0.6298828125
0.625
0.6201171875
0.6201171875
0.6201171875
0.615234375
0.615234375
0.615234375
0.615234375
0.615234375
0.6201171875
0.625
0.6298828125
0.634765625
0.64453125
0.654296875
0.6591796875
0.6689453125
0.673828125
0.68359375
0.6884765625
0.6982421875
0.703125
0.7080078125
0.712890625
0.72265625
0.72265625
0.7275390625
0.732421875
0.7373046875
0.7373046875
0.7421875
0.7373046875
0.7421875
0.7373046875
0.7373046875
0.7373046875
0.732421875
0.732421875
0.7275390625
0.72265625
0.72265625
0.7177734375
0.712890625
0.712890625
0.7080078125
0.703125
0.6982421875
0.6982421875
0.693359375
0.6884765625
0.68359375
0.68359375
0.6787109375
0.673828125
0.6689453125
0.6640625
0.6640625
0.6591796875
0.654296875
0.6494140625
0.64453125
0.6396484375
0.634765625
0.634765625
0.6298828125
0.625
0.615234375
0.615234375
0.6103515625
0.60546875
0.6005859375
0.595703125
0.5908203125
0.5908203125
0.5859375
0.5810546875
0.5810546875
0.576171875
0.5712890625
0.5712890625
0.56640625
0.5615234375
0.5615234375
0.556640625
0.556640625
0.5517578125
0.5517578125
0.546875
0.546875
0.546875
0.546875
0.556640625
0.556640625
0.56640625
0.576171875
0.5810546875
0.5859375
0.595703125
0.60546875
0.615234375
0.6201171875
0.6298828125
0.634765625
0.6396484375
0.64453125
0.6494140625
0.654296875
0.6591796875
0.6640625
0.6689453125
0.6689453125
0.673828125
0.6787109375
0.6787109375
0.6787109375
0.6787109375
0.6787109375
0.673828125
0.673828125
0.6689453125
0.6689453125
0.6689453125
0.6640625
0.6640625
0.6591796875
0.6591796875
0.6591796875
0.654296875
0.654296875
0.6494140625
0.6494140625
0.6494140625
0.64453125
0.64453125
0.64453125
0.6396484375
0.6396484375
0.6396484375
0.634765625
0.634765625
0.6298828125
0.6298828125
0.6298828125
0.625
0.6201171875
0.6201171875
0.615234375
0.615234375
0.615234375
0.6103515625
0.60546875
0.60546875
0.60546875
0.6005859375
0.6005859375
0.6005859375
0.595703125
0.5908203125
0.5908203125
0.5908203125
0.5908203125
0.5859375
0.5859375
0.5859375
0.5810546875
0.5810546875
0.5810546875
0.576171875
0.576171875
0.576171875
0.576171875
0.576171875
0.576171875
0.5810546875
0.5859375
0.5908203125
0.6005859375
0.6103515625
0.615234375
0.625
0.6298828125
0.634765625
0.6396484375
0.6494140625
0.654296875
0.6591796875
0.6640625
0.673828125
0.673828125
0.6787109375
0.68359375
0.68359375
0.6884765625
0.6884765625
0.6884765625
0.6884765625
0.6884765625
0.68359375
0.68359375
0.68359375
0.6787109375
0.673828125
0.673828125
0.6689453125
0.6689453125
0.6640625
0.6591796875
0.6591796875
0.654296875
0.6494140625
0.6494140625
0.64453125
0.64453125
0.6396484375
0.634765625
0.6298828125
0.6298828125
0.6298828125
0.6201171875
0.6201171875
0.615234375
0.6103515625
0.60546875
0.6005859375
0.6005859375
0.595703125
0.5908203125
0.5908203125
0.5810546875
0.5810546875
0.576171875
0.576171875
0.5712890625
0.56640625
0.56640625
0.5615234375
0.556640625
0.556640625
0.5517578125
0.5517578125
0.5517578125
0.5517578125
0.5517578125
0.546875
0.5419921875
0.5419921875
0.5419921875
0.537109375
0.5419921875
0.537109375
0.537109375
0.5419921875
0.5419921875
0.546875
0.556640625
0.5615234375
0.56640625
0.5712890625
0.5859375
0.5908203125
0.595703125
0.60546875
0.6103515625
0.6201171875
0.6298828125
0.6298828125
0.634765625
0.6396484375
0.64453125
0.6494140625
0.6494140625
0.654296875
0.654296875
0.6591796875
0.6591796875
0.6591796875
0.6640625
0.6591796875
0.6591796875
0.654296875
0.654296875
0.6494140625
0.6494140625
0.64453125
0.64453125
0.64453125
0.6396484375
0.6396484375
0.6396484375
0.634765625
0.634765625
0.6298828125
0.6298828125
0.6298828125
0.6298828125
0.6298828125
0.625
0.625
0.6201171875
0.6201171875
0.615234375
0.615234375
0.6103515625
0.6103515625
0.6103515625
0.60546875
0.60546875
0.6005859375
0.6005859375
0.6005859375
0.595703125
0.595703125
0.5908203125
0.5908203125
0.5908203125
0.5859375
0.5859375
0.5859375
0.5810546875
0.576171875
0.5810546875
0.576171875
0.576171875
0.576171875
0.5712890625
0.5712890625
0.5712890625
0.576171875
0.576171875
0.576171875
0.5859375
0.5908203125
0.595703125
0.6005859375
0.60546875
0.615234375
0.6201171875
0.625
0.6298828125
0.634765625
0.64453125
0.6494140625
0.6494140625
0.654296875
0.6591796875
0.6591796875
0.6640625
0.6640625
0.6689453125
0.6689453125
0.6689453125
0.6689453125
0.6689453125
0.6640625
0.6689453125
0.6591796875
0.6591796875
0.6591796875
0.654296875
0.654296875
0.6494140625
0.64453125
0.64453125
0.6396484375
0.6396484375
0.6396484375
0.634765625
0.634765625
0.634765625
0.6298828125
0.6298828125
0.6298828125
0.625
0.6201171875
0.6201171875
0.615234375
0.615234375
0.6103515625
0.6103515625
0.60546875
0.60546875
0.6005859375
0.6005859375
0.595703125
0.5908203125
0.5908203125
0.5908203125
0.5859375
0.5859375
0.5810546875
0.5810546875
0.5810546875
0.5810546875
0.576171875
0.576171875
0.5712890625
0.5712890625
0.56640625
0.5615234375
0.5615234375
0.5615234375
0.556640625
0.556640625
0.5517578125
0.5517578125
0.5517578125
0.5517578125
0.5517578125
0.556640625
0.556640625
0.5615234375
0.56640625
0.576171875
0.5810546875
0.5908203125
0.6005859375
0.60546875
0.615234375
0.6201171875
0.6298828125
0.634765625
0.64453125
0.64453125
0.6494140625
0.654296875
0.6591796875
0.6640625
0.6689453125
0.6689453125
0.673828125
0.673828125
0.6787109375
0.6787109375
0.68359375
0.6787109375
0.6787109375
0.6787109375
0.673828125
0.673828125
0.6689453125
0.6689453125
0.6640625
0.6640625
0.6591796875
0.6591796875
0.6591796875
0.654296875
0.654296875
0.6494140625
0.6494140625
0.64453125
0.6396484375
0.6396484375
0.634765625
0.634765625
0.6298828125
0.6298828125
0.625
0.6201171875
0.615234375
0.615234375
0.6103515625
0.6103515625
0.6103515625
0.6005859375
0.6005859375
0.6005859375
0.595703125
0.5908203125
0.5908203125
0.5859375
0.5859375
0.5810546875
0.5810546875
0.5810546875
0.576171875
0.576171875
0.5712890625
0.5712890625
0.56640625
0.56640625
0.5615234375
0.5615234375
0.556640625
0.5615234375
0.556640625
0.5517578125
0.5517578125
0.5517578125
0.5517578125
0.5517578125
0.5517578125
0.5517578125
0.5517578125
0.556640625
0.5615234375
0.56640625
0.5712890625
0.576171875
0.5859375
0.5908203125
0.595703125
0.60546875
0.6103515625
0.615234375
0.625
0.6298828125
0.634765625
0.6396484375
0.6396484375
0.64453125
0.6494140625
0.6494140625
0.654296875
0.654296875
0.654296875
0.6591796875
0.6591796875
0.6591796875
0.6591796875
0.654296875
0.654296875
0.6494140625
0.6494140625
0.64453125
0.6396484375
0.6396484375
0.634765625
0.634765625
0.6298828125
0.6298828125
0.625
0.6201171875
0.6201171875
0.615234375
0.615234375
0.615234375
0.6103515625
0.60546875
0.6005859375
0.6005859375
0.595703125
0.5908203125
0.5908203125
0.5859375
0.5810546875
0.5810546875
0.576171875
0.5712890625
0.5712890625
0.56640625
0.56640625
0.5615234375
0.5615234375
0.556640625
0.5517578125
0.5517578125
0.546875
0.546875
0.5419921875
0.5419921875
0.5419921875
0.5419921875
0.537109375
0.537109375
0.5322265625
0.5322265625
0.5322265625
0.5322265625
0.5322265625
0.5322265625
0.5322265625
0.5322265625
0.5322265625
0.537109375
0.5419921875
0.546875
0.556640625
0.5615234375
0.5712890625
0.576171875
0.5810546875
0.595703125
0.6005859375
0.60546875
0.615234375
0.615234375
0.625
0.6298828125
0.634765625
0.6396484375
0.64453125
0.64453125
0.6494140625
0.654296875
0.654296875
0.6591796875
0.6591796875
0.6591796875
0.6591796875
0.654296875
0.654296875
0.654296875
0.6494140625
0.64453125
0.6396484375
0.6396484375
0.634765625
0.6298828125
0.6298828125
0.6298828125
0.625
0.6201171875
0.615234375
0.615234375
0.615234375
0.6103515625
0.6103515625
0.60546875
0.60546875
0.6005859375
0.6005859375
0.6005859375
0.595703125
0.595703125
0.595703125
0.5908203125
0.5859375
0.5908203125
0.5810546875
0.5810546875
0.5810546875
0.576171875
0.576171875
0.5712890625
0.5712890625
0.56640625
0.56640625
0.5615234375
0.5615234375
0.556640625
0.5517578125
0.5517578125
0.546875
0.546875
0.5419921875
0.546875
0.5419921875
0.537109375
0.537109375
0.537109375
0.537109375
0.5322265625
0.5322265625
0.5322265625
0.5322265625
0.5322265625
0.5322265625
0.5322265625
0.537109375
0.5419921875
0.5419921875
0.546875
0.5517578125
0.5615234375
0.56640625
0.5712890625
0.5810546875
0.5859375
0.5908203125
0.595703125
0.6005859375
0.60546875
0.6103515625
0.6103515625
0.615234375
0.6201171875
0.6201171875
0.625
0.6298828125
0.6298828125
0.6298828125
0.6298828125
0.6298828125
0.6298828125
0.625
0.625
0.6201171875
0.615234375
0.615234375
0.6103515625
0.6103515625
0.6005859375
0.6005859375
0.595703125
0.595703125
0.5908203125
0.5908203125
0.5908203125
0.5859375
0.5859375
0.5859375
0.5859375
0.5810546875
0.576171875
0.576171875
0.576171875
0.5712890625
0.5712890625
0.5712890625
0.5712890625
0.56640625
0.56640625
0.56640625
0.5615234375
0.5615234375
0.5615234375
0.556640625
0.5615234375
0.556640625
0.556640625
0.5517578125
0.5517578125
0.5517578125
0.5517578125
0.5517578125
0.546875
0.546875
0.546875
0.546875
0.5419921875
0.546875
0.5419921875
0.537109375
0.537109375
0.537109375
0.537109375
0.537109375
0.5322265625
0.5322265625
0.5322265625
0.5322265625
0.52734375
0.52734375
0.52734375
0.52734375
0.52734375
0.52734375
0.5322265625
0.537109375
0.5419921875
0.546875
0.556640625
0.5615234375
0.5712890625
0.576171875
0.5859375
0.595703125
0.6005859375
0.60546875
0.6103515625
0.615234375
0.6201171875
0.625
0.6298828125
0.634765625
0.634765625
0.6396484375
0.6396484375
0.6396484375
0.64453125
0.64453125
0.6396484375
0.64453125
0.64453125
0.6396484375
0.6396484375
0.6396484375
0.634765625
0.634765625
0.6298828125
0.6298828125
0.625
0.625
0.6201171875
0.6201171875
0.615234375
0.6201171875
0.615234375
0.6103515625
0.6103515625
0.6103515625
0.60546875
0.60546875
0.6005859375
0.6005859375
0.6005859375
0.595703125
0.595703125
0.5908203125
0.5908203125
0.5908203125
0.5859375
0.5859375
0.5859375
0.5810546875
0.5810546875
0.576171875
0.576171875
0.576171875
0.576171875
0.576171875
0.5712890625
0.576171875
0.56640625
0.5712890625
0.56640625
0.56640625
0.56640625
0.56640625
0.56640625
0.56640625
0.56640625
0.5615234375
0.56640625
0.5615234375
0.5615234375
0.5615234375
0.556640625
0.556640625
0.556640625
0.556640625
0.556640625
0.5615234375
0.56640625
0.5712890625
0.576171875
0.5810546875
0.5908203125
0.595703125
0.6005859375
0.6103515625
0.615234375
0.6201171875
0.625
0.6298828125
0.634765625
0.6396484375
0.6396484375
0.64453125
0.64453125
0.6494140625
0.6494140625
0.654296875
0.654296875
0.654296875
0.654296875
0.654296875
0.654296875
0.6494140625
0.64453125
0.64453125
0.6396484375
0.634765625
0.634765625
0.634765625
0.6298828125
0.6298828125
0.6298828125
0.625
0.6201171875
0.6201171875
0.6201171875
0.6201171875
0.615234375
0.615234375
0.6103515625
0.6103515625
0.60546875
0.60546875
0.6005859375
0.6005859375
0.595703125
0.595703125
0.595703125
0.5908203125
0.5908203125
0.5859375
0.5859375
0.5810546875
0.5810546875
0.5810546875
0.576171875
0.576171875
0.576171875
0.5712890625
0.56640625
0.56640625
0.56640625
0.56640625
0.5615234375
0.56640625
0.5615234375
0.5615234375
0.5615234375
0.5615234375
0.5615234375
0.5615234375
0.5615234375
0.5615234375
0.5615234375
0.5615234375
0.5615234375
0.5615234375
0.5615234375
0.56640625
0.56640625
0.5712890625
0.576171875
0.5810546875
0.5859375
0.5908203125
0.6005859375
0.6103515625
0.615234375
0.625
0.6298828125
0.634765625
0.64453125
0.64453125
0.6494140625
0.6591796875
0.6640625
0.6640625
0.6689453125
0.6689453125
0.673828125
0.673828125
0.673828125
0.6787109375
0.673828125
0.6787109375
0.6787109375
0.673828125
0.673828125
0.6689453125
0.6689453125
0.6640625
0.6640625
0.6591796875
0.6591796875
0.654296875
0.654296875
0.6494140625
0.6494140625
0.64453125
0.64453125
0.64453125
0.6396484375
0.634765625
0.634765625
0.634765625
0.634765625
0.6298828125
0.6298828125
0.625
0.6201171875
0.6201171875
0.6201171875
0.615234375
0.615234375
0.6103515625
0.6103515625
0.6103515625
0.60546875
0.60546875
0.60546875
0.6005859375
0.6005859375
0.595703125
0.5908203125
0.5908203125
0.5908203125
0.5859375
0.5859375
0.5810546875
0.5810546875
0.576171875
0.576171875
0.576171875
0.5712890625
0.5712890625
0.5712890625
0.56640625
0.56640625
0.56640625
0.56640625
0.56640625
0.5615234375
0.5615234375
0.5615234375
0.556640625
0.556640625
0.5517578125
0.5517578125
0.556640625
0.5517578125
0.556640625
0.556640625
0.5615234375
0.56640625
0.5712890625
0.576171875
0.5859375
0.5908203125
0.6005859375
0.60546875
0.615234375
0.6201171875
0.6298828125
0.634765625
0.6396484375
0.64453125
0.6494140625
0.654296875
0.6591796875
0.6640625
0.6689453125
0.6689453125
0.673828125
0.673828125
0.673828125
0.673828125
0.673828125
0.673828125
0.6689453125
0.6689453125
0.6689453125
0.6640625
0.6640625
0.6640625
0.6591796875
0.654296875
0.654296875
0.654296875
0.6494140625
0.6494140625
0.64453125
0.64453125
0.6396484375
0.6396484375
0.6396484375
0.634765625
0.634765625
0.634765625
0.634765625
0.634765625
0.6298828125
0.6298828125
0.6298828125
0.625
0.625
0.6201171875
0.6201171875
0.615234375
0.615234375
0.615234375
0.6103515625
0.60546875
0.60546875
0.60546875
0.60546875
0.6005859375
0.6005859375
0.595703125
0.595703125
0.5908203125
0.5908203125
0.5859375
0.5859375
0.5859375
0.5859375
0.5859375
0.5810546875
0.5859375
0.5810546875
0.5810546875
0.5859375
0.5810546875
0.5810546875
0.5810546875
0.5810546875
0.5810546875
0.5859375
0.5859375
0.5908203125
0.595703125
0.6005859375
0.60546875
0.615234375
0.6201171875
0.6298828125
0.634765625
0.634765625
0.6396484375
0.6494140625
0.654296875
0.6591796875
0.6591796875
0.6640625
0.6689453125
0.6689453125
0.673828125
0.6689453125
0.673828125
0.673828125
0.673828125
0.673828125
0.673828125
0.6689453125
0.6689453125
0.6640625
0.6640625
0.6591796875
0.654296875
0.654296875
0.6494140625
0.6494140625
0.64453125
0.6396484375
0.6396484375
0.634765625
0.6298828125
0.6298828125
0.6298828125
0.625
0.625
0.625
0.6201171875
0.615234375
0.615234375
0.6103515625
0.6103515625
0.6103515625
0.6103515625
0.60546875
0.60546875
0.6005859375
0.6005859375
0.6005859375
0.595703125
0.595703125
0.5908203125
0.5908203125
0.5908203125
0.5859375
0.5859375
0.5859375
0.5810546875
0.5810546875
0.5810546875
0.5810546875
0.5810546875
0.576171875
0.576171875
0.576171875
0.576171875
0.5712890625
0.5712890625
0.5712890625
0.5712890625
0.56640625
0.56640625
0.5615234375
0.5615234375
0.5615234375
0.556640625
0.556640625
0.556640625
0.556640625
0.5615234375
0.56640625
0.5712890625
0.5810546875
0.5859375
0.5908203125
0.6005859375
0.6103515625
0.615234375
0.6201171875
0.6298828125
0.634765625
0.6396484375
0.64453125
0.6494140625
0.654296875
0.654296875
0.6591796875
0.6640625
0.6689453125
0.6689453125
0.6689453125
0.6689453125
0.6689453125
0.6689453125
0.6640625
0.6640625
0.6640625
0.6591796875
0.6591796875
0.6591796875
0.654296875
0.654296875
0.6494140625
0.6494140625
0.64453125
0.64453125
0.64453125
0.6396484375
0.6396484375
0.6396484375
0.634765625
0.634765625
0.6298828125
0.6298828125
0.6298828125
0.6298828125
0.6298828125
0.625
0.6201171875
0.6201171875
0.6201171875
0.6201171875
0.615234375
0.615234375
0.615234375
0.6103515625
0.6103515625
0.6103515625
0.60546875
0.6005859375
0.6005859375
0.6005859375
0.595703125
0.595703125
0.5908203125
0.5908203125
0.5859375
0.5859375
0.5859375
0.5859375
0.5810546875
0.5810546875
0.576171875
0.576171875
0.5712890625
0.5712890625
0.5712890625
0.5712890625
0.56640625
0.56640625
0.5615234375
0.5615234375
0.5615234375
0.556640625
0.556640625
0.5615234375
0.5615234375
0.5615234375
0.56640625
0.5712890625
0.5810546875
0.5859375
0.595703125
0.6005859375
0.6103515625
0.6201171875
0.625
0.634765625
0.6396484375
0.64453125
0.654296875
0.6591796875
0.6640625
0.6689453125
0.6689453125
0.673828125
0.6787109375
0.6787109375
0.68359375
0.68359375
0.6787109375
0.68359375
0.6787109375
0.673828125
0.673828125
0.673828125
0.6689453125
0.6689453125
0.6640625
0.6591796875
0.6591796875
0.654296875
0.654296875
0.6494140625
0.64453125
0.64453125
0.6396484375
0.6396484375
0.6396484375
0.634765625
0.634765625
0.6298828125
0.6298828125
0.6298828125
0.6298828125
0.6298828125
0.625
0.625
0.6201171875
0.6201171875
0.6201171875
0.615234375
0.615234375
0.6103515625
0.6103515625
0.6103515625
0.60546875
0.60546875
0.60546875
0.6005859375
0.6005859375
0.6005859375
0.6005859375
0.595703125
0.595703125
0.595703125
0.5908203125
0.5908203125
0.5859375
0.5908203125
0.5859375
0.5859375
0.5859375
0.5810546875
0.5810546875
0.5810546875
0.576171875
0.5810546875
0.576171875
0.5810546875
0.576171875
0.576171875
0.576171875
0.5712890625
0.5712890625
0.5712890625
0.5712890625
0.5712890625
0.5712890625
0.5712890625
0.576171875
0.5810546875
0.5859375
0.595703125
0.6005859375
0.60546875
0.615234375
0.625
0.6298828125
0.6396484375
0.64453125
0.654296875
0.6591796875
0.6640625
0.6689453125
0.673828125
0.6787109375
0.68359375
0.68359375
0.6884765625
0.6884765625
0.6884765625
0.6884765625
0.693359375
0.6884765625
0.6884765625
0.6884765625
0.6884765625
0.68359375
0.68359375
0.6787109375
0.673828125
0.673828125
0.6689453125
0.6689453125
0.6689453125
0.6640625
0.6591796875
0.6591796875
0.654296875
0.654296875
0.6494140625
0.6494140625
0.64453125
0.6396484375
0.6396484375
0.6396484375
0.6298828125
0.6298828125
0.6298828125
0.625
0.6201171875
0.615234375
0.6201171875
0.615234375
0.6103515625
0.6103515625
0.60546875
0.60546875
0.6005859375
0.595703125
0.595703125
0.5908203125
0.5908203125
0.5908203125
0.5859375
0.5810546875
0.5810546875
0.576171875
0.5810546875
0.576171875
0.576171875
0.576171875
0.5712890625
0.5712890625
0.5712890625
0.56640625
0.56640625
0.5615234375
0.5615234375
0.5615234375
0.556640625
0.556640625
0.5615234375
0.5615234375
0.56640625
0.5712890625
0.576171875
0.5859375
0.5908203125
0.6005859375
0.6103515625
0.615234375
0.6298828125
0.634765625
0.64453125
0.6494140625
0.654296875
0.6640625
0.6689453125
0.673828125
0.68359375
0.68359375
0.6884765625
0.693359375
0.693359375
0.6982421875
0.6982421875
0.6982421875
0.703125
0.6982421875
0.6982421875
0.6982421875
0.693359375
0.693359375
0.6884765625
0.6884765625
0.68359375
0.6787109375
0.6787109375
0.673828125
0.673828125
0.673828125
0.6689453125
0.6689453125
0.6689453125
0.6640625
0.6591796875
0.6591796875
0.654296875
0.654296875
0.6494140625
0.6494140625
0.64453125
0.64453125
0.6396484375
0.6396484375
0.634765625
0.634765625
0.6298828125
0.6298828125
0.6298828125
0.6201171875
0.615234375
0.6201171875
0.615234375
0.615234375
0.6103515625
0.6103515625
0.60546875
0.6005859375
0.60546875
0.6005859375
0.595703125
0.595703125
0.595703125
0.5908203125
0.595703125
0.5859375
0.5859375
0.5859375
0.5810546875
0.5810546875
0.5810546875
0.576171875
0.5810546875
0.576171875
0.576171875
0.576171875
0.5712890625
0.5712890625
0.5712890625
0.56640625
0.56640625
0.5615234375
0.5615234375
0.5615234375
0.556640625
0.5615234375
0.5615234375
0.56640625
0.576171875
0.5810546875
0.595703125
0.6005859375
0.615234375
0.6201171875
0.6298828125
0.634765625
0.6494140625
0.654296875
0.6640625
0.6689453125
0.6787109375
0.68359375
0.6884765625
0.693359375
0.6982421875
0.7080078125
0.7080078125
0.712890625
0.712890625
0.7177734375
0.7177734375
0.7177734375
0.7177734375
0.7177734375
0.712890625
0.712890625
0.712890625
0.7080078125
0.7080078125
0.7080078125
0.7080078125
0.703125
0.703125
0.703125
0.6982421875
0.6982421875
0.693359375
0.6884765625
0.6884765625
0.6884765625
0.6884765625
0.68359375
0.6787109375
0.6787109375
0.673828125
0.673828125
0.6689453125
0.6689453125
0.6640625
0.6640625
0.654296875
0.654296875
0.6494140625
0.6494140625
0.64453125
0.6396484375
0.6396484375
0.634765625
0.634765625
0.6298828125
0.6298828125
0.625
0.6201171875
0.615234375
0.615234375
0.6103515625
0.6103515625
0.60546875
0.60546875
0.60546875
0.6005859375
0.595703125
0.595703125
0.595703125
0.595703125
0.595703125
0.595703125
0.6005859375
0.60546875
0.6103515625
0.615234375
0.625
0.6298828125
0.64453125
0.6494140625
0.6591796875
0.6640625
0.673828125
0.68359375
0.6884765625
0.693359375
0.6982421875
0.7080078125
0.712890625
0.7177734375
0.72265625
0.7275390625
0.732421875
0.732421875
0.7373046875
0.7373046875
0.7421875
0.7421875
0.7373046875
0.7373046875
0.7373046875
0.732421875
0.732421875
0.7275390625
0.72265625
0.72265625
0.712890625
0.712890625
0.7080078125
0.7080078125
0.703125
0.6982421875
0.6982421875
0.693359375
0.6884765625
0.68359375
0.68359375
0.6787109375
0.673828125
0.6689453125
0.6689453125
0.6640625
0.6591796875
0.654296875
0.6494140625
0.6494140625
0.64453125
0.634765625
0.634765625
0.6298828125
0.6298828125
0.6298828125
0.6201171875
0.6201171875
0.615234375
0.6103515625
0.6103515625
0.60546875
0.60546875
0.60546875
0.6005859375
0.595703125
0.595703125
0.5908203125
0.5908203125
0.5859375
0.5859375
0.5810546875
0.5810546875
0.576171875
0.576171875
0.5712890625
0.5712890625
0.5712890625
0.56640625
0.56640625
0.56640625
0.56640625
0.56640625
0.5615234375
0.5615234375
0.556640625
0.556640625
0.5615234375
0.5615234375
0.56640625
0.5712890625
0.5810546875
0.5908203125
0.6005859375
0.60546875
0.6201171875
0.6298828125
0.634765625
0.64453125
0.654296875
0.6640625
0.6689453125
0.6787109375
0.68359375
0.693359375
0.6982421875
0.703125
0.7080078125
0.712890625
0.7177734375
0.7177734375
0.72265625
0.72265625
0.72265625
0.72265625
0.72265625
0.72265625
0.7177734375
0.712890625
0.712890625
0.7080078125
0.7080078125
0.703125
0.6982421875
0.6982421875
0.693359375
0.6884765625
0.6884765625
0.68359375
0.68359375
0.6787109375
0.673828125
0.673828125
0.6689453125
0.6640625
0.6591796875
0.654296875
0.654296875
0.6494140625
0.64453125
0.6396484375
0.634765625
0.6298828125
0.6298828125
0.6201171875
0.6201171875
0.615234375
0.6103515625
0.60546875
0.6005859375
0.6005859375
0.595703125
0.5908203125
0.5908203125
0.5859375
0.5810546875
0.5810546875
0.576171875
0.576171875
0.5712890625
0.5712890625
0.5712890625
0.56640625
0.56640625
0.56640625
0.5615234375
0.556640625
0.5615234375
0.5615234375
0.556640625
0.556640625
0.5517578125
0.5517578125
0.5517578125
0.5517578125
0.5517578125
0.5517578125
0.5517578125
0.5517578125
0.556640625
0.5615234375
0.56640625
0.5712890625
0.5810546875
0.5908203125
0.6005859375
0.6103515625
0.615234375
0.625
0.6298828125
0.6396484375
0.6494140625
0.654296875
0.6591796875
0.6640625
0.6689453125
0.673828125
0.6787109375
0.68359375
0.6884765625
0.6884765625
0.693359375
0.693359375
0.693359375
0.693359375
0.693359375
0.6884765625
0.6884765625
0.68359375
0.68359375
0.6787109375
0.6787109375
0.673828125
0.673828125
0.6689453125
0.6689453125
0.6640625
0.6640625
0.6591796875
0.6591796875
0.654296875
0.654296875
0.654296875
0.6494140625
0.6494140625
0.64453125
0.6494140625
0.64453125
0.64453125
0.6396484375
0.6396484375
0.6396484375
0.634765625
0.634765625
0.6298828125
0.6298828125
0.6298828125
0.625
0.625
0.6201171875
0.615234375
0.615234375
0.615234375
0.6103515625
0.6103515625
0.6103515625
0.60546875
0.60546875
0.6005859375
0.6005859375
0.6005859375
0.595703125
0.595703125
0.595703125
0.595703125
0.5908203125
0.5908203125
0.5908203125
0.5859375
0.5859375
0.5810546875
0.5810546875
0.5810546875
0.576171875
0.576171875
0.576171875
0.5712890625
0.5712890625
0.56640625
0.56640625
0.56640625
0.5712890625
0.5712890625
0.576171875
0.5810546875
0.5908203125
0.6005859375
0.60546875
0.615234375
0.6201171875
0.6298828125
0.634765625
0.64453125
0.6494140625
0.6591796875
0.6591796875
0.6640625
0.6689453125
0.673828125
0.6787109375
0.6787109375
0.68359375
0.68359375
0.6884765625
0.68359375
0.6884765625
0.6884765625
0.6884765625
0.68359375
0.6787109375
0.6787109375
0.673828125
0.6689453125
0.6640625
0.6640625
0.6591796875
0.654296875
0.6494140625
0.64453125
0.6396484375
0.6396484375
0.634765625
0.634765625
0.6298828125
0.6298828125
0.625
0.625
0.625
0.625
0.6201171875
0.615234375
0.615234375
0.6103515625
0.6103515625
0.6103515625
0.60546875
0.60546875
0.6005859375
0.6005859375
0.6005859375
0.595703125
0.595703125
0.5908203125
0.5908203125
0.5908203125
0.5859375
0.5859375
0.5810546875
0.5810546875
0.5810546875
0.5810546875
0.576171875
0.576171875
0.5712890625
0.5712890625
0.5712890625
0.5712890625
0.5712890625
0.5712890625
0.5712890625
0.5712890625
0.5712890625
0.5712890625
0.5712890625
0.576171875
0.5810546875
0.5810546875
0.5908203125
0.595703125
0.6005859375
0.615234375
0.6201171875
0.625
0.634765625
0.6396484375
0.6494140625
0.6591796875
0.6640625
0.6689453125
0.6787109375
0.6787109375
0.68359375
0.6884765625
0.693359375
0.6982421875
0.6982421875
0.703125
0.703125
0.7080078125
0.703125
0.703125
0.703125
0.6982421875
0.693359375
0.693359375
0.6884765625
0.68359375
0.6787109375
0.673828125
0.673828125
0.6689453125
0.6640625
0.6640625
0.6591796875
0.654296875
0.654296875
0.6494140625
0.64453125
0.6396484375
0.6396484375
0.634765625
0.6298828125
0.6298828125
0.625
0.6201171875
0.6201171875
0.615234375
0.6103515625
0.6103515625
0.60546875
0.60546875
0.6005859375
0.6005859375
0.595703125
0.5908203125
0.5908203125
0.5908203125
0.5859375
0.5810546875
0.5810546875
0.576171875
0.576171875
0.576171875
0.5712890625
0.5712890625
0.56640625
0.56640625
0.56640625
0.5615234375
0.5615234375
0.556640625
0.556640625
0.5517578125
0.5517578125
0.5517578125
0.5517578125
0.546875
0.546875
0.546875
0.546875
0.5419921875
0.5419921875
0.5419921875
0.5419921875
0.537109375
0.537109375
0.537109375
0.537109375
0.537109375
0.5419921875
0.546875
0.5517578125
0.556640625
0.5615234375
0.5712890625
0.576171875
0.5908203125
0.595703125
0.6005859375
0.6103515625
0.615234375
0.625
0.6298828125
0.634765625
0.6396484375
0.64453125
0.6494140625
0.654296875
0.654296875
0.6591796875
0.6591796875
0.6640625
0.6640625
0.6640625
0.6640625
0.6689453125
0.6640625
0.6640625
0.6640625
0.6591796875
0.6591796875
0.6591796875
0.654296875
0.6591796875
0.6591796875
0.654296875
0.6591796875
0.654296875
0.6591796875
0.6591796875
0.6591796875
0.6591796875
0.6640625
0.6591796875
0.6591796875
0.654296875
0.654296875
0.6494140625
0.6494140625
0.64453125
0.634765625
0.634765625
0.6298828125
0.625
0.6201171875
0.6201171875
0.615234375
0.615234375
0.6103515625
0.6103515625
0.60546875
0.60546875
0.6103515625
0.60546875
0.6103515625
0.6103515625
0.6103515625
0.6103515625
0.6103515625
0.6103515625
0.6103515625
0.6103515625
0.615234375
0.6103515625
0.6103515625
0.6103515625
0.6103515625
0.60546875
0.60546875
0.60546875
0.60546875
0.60546875
0.6005859375
0.6005859375
0.6005859375
0.6005859375
0.6005859375
0.6005859375
0.60546875
0.60546875
0.6103515625
0.615234375
0.615234375
0.625
0.6298828125
0.634765625
0.6396484375
0.64453125
0.6494140625
0.654296875
0.6591796875
0.6640625
0.6689453125
0.673828125
0.6787109375
0.6787109375
0.68359375
0.693359375
0.693359375
0.6982421875
0.6982421875
0.703125
0.703125
0.7080078125
0.7080078125
0.7080078125
0.7080078125
0.7080078125
0.7080078125
0.7080078125
0.703125
0.703125
0.703125
0.703125
0.6982421875
0.693359375
0.693359375
0.6884765625
0.6884765625
0.6884765625
0.68359375
0.68359375
0.6787109375
0.6787109375
0.6787109375
0.673828125
0.673828125
0.673828125
0.6689453125
0.6689453125
0.6689453125
0.6640625
0.6640625
0.6591796875
0.6591796875
0.6591796875
0.654296875
0.654296875
0.6494140625
0.6494140625
0.64453125
0.6396484375
0.6396484375
0.6396484375
0.634765625
0.634765625
0.6298828125
0.625
0.625
0.6201171875
0.615234375
0.6103515625
0.60546875
0.60546875
0.595703125
0.595703125
0.5908203125
0.5859375
0.5810546875
0.576171875
0.5712890625
0.56640625
0.5615234375
0.556640625
0.5517578125
0.5517578125
0.5517578125
0.5517578125
0.5517578125
0.556640625
0.556640625
0.556640625
0.5615234375
0.56640625
0.5712890625
0.5712890625
0.576171875
0.5810546875
0.5859375
0.5859375
0.5908203125
0.595703125
0.6005859375
0.6005859375
0.6005859375
0.60546875
0.6103515625
0.6103515625
0.6103515625
0.6103515625
0.6103515625
0.6103515625
0.6103515625
0.60546875
0.60546875
0.60546875
0.6005859375
0.6005859375
0.6005859375
0.595703125
0.595703125
0.5908203125
0.5908203125
0.5908203125
0.5859375
0.5859375
0.5810546875
0.5810546875
0.576171875
0.576171875
0.576171875
0.576171875
0.576171875
0.5712890625
0.5712890625
0.5712890625
0.5712890625
0.5712890625
0.5712890625
0.56640625
0.56640625
0.56640625
0.56640625
0.56640625
0.5712890625
0.56640625
0.5712890625
0.5712890625
0.56640625
0.5712890625
0.5712890625
0.5712890625
0.5712890625
0.5712890625
0.5712890625
0.5712890625
0.5712890625
0.5712890625
0.56640625
0.56640625
0.56640625
0.56640625
0.5615234375
0.56640625
0.5615234375
0.5615234375
0.5615234375
0.5615234375
0.556640625
0.5615234375
0.556640625
0.556640625
0.5615234375
0.5615234375
0.5615234375
0.5615234375
0.5712890625
0.5712890625
0.5810546875
0.5859375
0.5908203125
0.595703125
0.6005859375
0.6005859375
0.6103515625
0.6103515625
0.6103515625
0.615234375
0.615234375
0.6201171875
0.6201171875
0.6201171875
0.6201171875
0.6201171875
0.6201171875
0.6201171875
0.6201171875
0.615234375
0.6201171875
0.615234375
0.6103515625
0.615234375
0.6103515625
0.6103515625
0.60546875
0.60546875
0.60546875
0.60546875
0.60546875
0.60546875
0.60546875
0.60546875
0.60546875
0.60546875
0.60546875
0.60546875
0.6103515625
0.60546875
0.60546875
0.60546875
0.60546875
0.60546875
0.60546875
0.60546875
0.60546875
0.60546875
0.60546875
0.60546875
0.60546875
0.60546875
0.60546875
0.6005859375
0.6005859375
0.6005859375
0.595703125
0.595703125
0.5908203125
0.5908203125
0.5859375
0.5859375
0.5859375
0.5810546875
0.5810546875
0.576171875
0.576171875
0.5712890625
0.56640625
0.56640625
0.5615234375
0.56640625
0.5615234375
0.56640625
0.56640625
0.5712890625
0.5712890625
0.576171875
0.5810546875
0.5859375
0.595703125
0.6005859375
0.60546875
0.615234375
0.6201171875
0.6298828125
0.634765625
0.6396484375
0.64453125
0.6494140625
0.6494140625
0.654296875
0.654296875
0.654296875
0.654296875
0.6494140625
0.6494140625
0.6494140625
0.6494140625
0.64453125
0.6396484375
0.634765625
0.6298828125
0.6298828125
0.625
0.6201171875
0.6201171875
0.615234375
0.615234375
0.6103515625
0.6103515625
0.60546875
0.60546875
0.60546875
0.6005859375
0.6005859375
0.595703125
0.595703125
0.5908203125
0.5908203125
0.5908203125
0.5908203125
0.5859375
0.5859375
0.5859375
0.5810546875
0.5810546875
0.5810546875
0.5810546875
0.5810546875
0.576171875
0.5810546875
0.5810546875
0.576171875
0.5810546875
0.5810546875
0.5810546875
0.5810546875
0.5810546875
0.5810546875
0.5810546875
0.5810546875
0.5810546875
0.5810546875
0.5810546875
0.5810546875
0.5810546875
0.5810546875
0.576171875
0.5810546875
0.576171875
0.576171875
0.576171875
0.5810546875
0.5810546875
0.5810546875
0.5810546875
0.5859375
0.5859375
0.5908203125
0.595703125
0.595703125
0.6005859375
0.6005859375
0.6103515625
0.6103515625
0.615234375
0.6201171875
0.6201171875
0.6201171875
0.6201171875
0.6201171875
0.625
0.625
0.625
0.6201171875
0.6201171875
0.625
0.6201171875
0.625
0.6201171875
0.6201171875
0.6201171875
0.615234375
0.615234375
0.615234375
0.615234375
0.6103515625
0.6103515625
0.6103515625
0.6103515625
0.6103515625
0.6103515625
0.6103515625
0.6103515625
0.6103515625
0.6103515625
0.6103515625
0.6103515625
0.6103515625
0.60546875
0.60546875
0.6005859375
0.595703125
0.595703125
0.5908203125
0.5908203125
0.5859375
0.5859375
0.5810546875
0.576171875
0.576171875
0.5712890625
0.56640625
0.56640625
0.5615234375
0.5615234375
0.556640625
0.556640625
0.5517578125
0.5517578125
0.5517578125
0.546875
0.546875
0.546875
0.5419921875
0.5419921875
0.5419921875
0.5419921875
0.5419921875
0.5517578125
0.5517578125
0.556640625
0.5615234375
0.56640625
0.5712890625
0.576171875
0.5810546875
0.5859375
0.5859375
0.5908203125
0.595703125
0.595703125
0.6005859375
0.6005859375
0.60546875
0.6103515625
0.6103515625
0.615234375
0.615234375
0.6201171875
0.6201171875
0.6201171875
0.625
0.625
0.6201171875
0.615234375
0.6201171875
0.615234375
0.615234375
0.6103515625
0.6103515625
0.6103515625
0.60546875
0.60546875
0.60546875
0.6005859375
0.6005859375
0.6005859375
0.6005859375
0.6005859375
0.595703125
0.6005859375
0.595703125
0.595703125
0.595703125
0.595703125
0.595703125
0.5908203125
0.5859375
0.5908203125
0.5859375
0.5859375
0.5859375
0.5810546875
0.5810546875
0.5810546875
0.576171875
0.576171875
0.5712890625
0.5712890625
0.5712890625
0.5712890625
0.56640625
0.56640625
0.5615234375
0.5615234375
0.5615234375
0.5615234375
0.5615234375
0.556640625
0.5615234375
0.5615234375
0.56640625
0.5712890625
0.576171875
0.5810546875
0.5908203125
0.5908203125
0.6005859375
0.60546875
0.615234375
0.615234375
0.625
0.6298828125
0.6298828125
0.6396484375
0.64453125
0.64453125
0.6494140625
0.6494140625
0.654296875
0.654296875
0.6591796875
0.6591796875
0.6591796875
0.6591796875
0.6591796875
0.6591796875
0.6591796875
0.654296875
0.654296875
0.6494140625
0.6494140625
0.64453125
0.64453125
0.6396484375
0.6396484375
0.634765625
0.634765625
0.6298828125
0.6298828125
0.6298828125
0.6298828125
0.6298828125
0.625
0.6201171875
0.6201171875
0.6201171875
0.6201171875
0.6201171875
0.615234375
0.615234375
0.615234375
0.6103515625
0.6103515625
0.6103515625
0.60546875
0.60546875
0.6005859375
0.6005859375
0.595703125
0.595703125
0.595703125
0.5908203125
0.5908203125
0.5859375
0.5859375
0.5859375
0.5859375
0.5859375
0.5810546875
0.5810546875
0.5810546875
0.5810546875
0.576171875
0.576171875
0.576171875
0.576171875
0.576171875
0.5810546875
0.5810546875
0.5859375
0.5908203125
0.595703125
0.60546875
0.615234375
0.6201171875
0.6298828125
0.6298828125
0.6396484375
0.64453125
0.6494140625
0.6494140625
0.6591796875
0.6640625
0.6640625
0.6689453125
0.673828125
0.673828125
0.6787109375
0.6787109375
0.6787109375
0.6787109375
0.68359375
0.68359375
0.68359375
0.68359375
0.6787109375
0.6787109375
0.673828125
0.673828125
0.673828125
0.6689453125
0.6640625
0.6591796875
0.6591796875
0.654296875
0.654296875
0.6494140625
0.6494140625
0.64453125
0.64453125
0.6396484375
0.6396484375
0.634765625
0.634765625
0.634765625
0.6298828125
0.6298828125
0.625
0.625
0.6201171875
0.6201171875
0.615234375
0.6103515625
0.6103515625
0.6103515625
0.60546875
0.60546875
0.6005859375
0.595703125
0.595703125
0.5908203125
0.5908203125
0.5859375
0.5859375
0.5810546875
0.5810546875
0.5810546875
0.5810546875
0.576171875
0.576171875
0.5712890625
0.5712890625
0.576171875
0.576171875
0.5712890625
0.5712890625
0.5712890625
0.5712890625
0.5712890625
0.5712890625
0.576171875
0.5810546875
0.5859375
0.595703125
0.6005859375
0.60546875
0.615234375
0.6201171875
0.634765625
0.6396484375
0.64453125
0.6494140625
0.6591796875
0.6591796875
0.6689453125
0.6689453125
0.673828125
0.6787109375
0.68359375
0.68359375
0.68359375
0.6884765625
0.6884765625
0.6884765625
0.6884765625
0.68359375
0.68359375
0.68359375
0.6787109375
0.673828125
0.673828125
0.6689453125
0.6689453125
0.6640625
0.6640625
0.6591796875
0.654296875
0.654296875
0.654296875
0.6494140625
0.6494140625
0.64453125
0.6396484375
0.6396484375
0.634765625
0.6298828125
0.6298828125
0.6298828125
0.625
0.6201171875
0.615234375
0.6201171875
0.615234375
0.6103515625
0.615234375
0.60546875
0.60546875
0.60546875
0.595703125
0.595703125
0.5908203125
0.5908203125
0.5908203125
0.5859375
0.5859375
0.5859375
0.5810546875
0.5810546875
0.5810546875
0.576171875
0.576171875
0.5712890625
0.5712890625
0.5712890625
0.5712890625
0.56640625
0.5615234375
0.556640625
0.556640625
0.556640625
0.556640625
0.556640625
0.556640625
0.5615234375
0.56640625
0.5712890625
0.5810546875
0.5810546875
0.595703125
0.6005859375
0.60546875
0.615234375
0.6201171875
0.6298828125
0.634765625
0.6396484375
0.64453125
0.6494140625
0.654296875
0.6591796875
0.6591796875
0.6640625
0.6640625
0.6640625
0.6689453125
0.6689453125
0.6689453125
0.6689453125
0.6689453125
0.6640625
0.6640625
0.6591796875
0.6591796875
0.6591796875
0.654296875
0.6494140625
0.64453125
0.64453125
0.64453125
0.6396484375
0.634765625
0.634765625
0.6298828125
0.6298828125
0.6298828125
0.625
0.6201171875
0.6201171875
0.6201171875
0.615234375
0.6103515625
0.6103515625
0.60546875
0.60546875
0.60546875
0.6005859375
0.6005859375
0.595703125
0.595703125
0.5908203125
0.5908203125
0.5859375
0.5859375
0.5859375
0.5810546875
0.576171875
0.576171875
0.576171875
0.576171875
0.5712890625
0.5712890625
0.56640625
0.56640625
0.5615234375
0.5615234375
0.5615234375
0.556640625
0.556640625
0.5517578125
0.5517578125
0.5517578125
0.5517578125
0.5517578125
0.5517578125
0.5517578125
0.556640625
0.5615234375
0.5615234375
0.5712890625
0.576171875
0.5859375
0.595703125
0.6005859375
0.6103515625
0.6201171875
0.625
0.6298828125
0.6396484375
0.64453125
0.6494140625
0.654296875
0.6591796875
0.6640625
0.6640625
0.6689453125
0.6689453125
0.673828125
0.673828125
0.673828125
0.673828125
0.6689453125
0.6689453125
0.6689453125
0.6689453125
0.6640625
0.6591796875
0.654296875
0.654296875
0.6494140625
0.6494140625
0.64453125
0.64453125
0.6396484375
0.6396484375
0.634765625
0.634765625
0.634765625
0.6298828125
0.6298828125
0.625
0.625
0.6201171875
0.615234375
0.615234375
0.6103515625
0.6103515625
0.60546875
0.60546875
0.60546875
0.60546875
0.6005859375
0.595703125
0.595703125
0.595703125
0.5908203125
0.5859375
0.5859375
0.5810546875
0.5810546875
0.5810546875
0.5810546875
0.576171875
0.576171875
0.576171875
0.5712890625
0.5712890625
0.5712890625
0.5712890625
0.56640625
0.56640625
0.5615234375
0.5615234375
0.5615234375
0.5615234375
0.556640625
0.5615234375
0.5615234375
0.5615234375
0.56640625
0.5712890625
0.576171875
0.5859375
0.5908203125
0.6005859375
0.6103515625
0.615234375
0.625
0.6298828125
0.634765625
0.6396484375
0.64453125
0.654296875
0.6591796875
0.6640625
0.6689453125
0.6689453125
0.673828125
0.6787109375
0.6787109375
0.6787109375
0.6787109375
0.6787109375
0.6787109375
0.6787109375
0.673828125
0.673828125
0.673828125
0.6689453125
0.6689453125
0.6689453125
0.6640625
0.6591796875
0.6591796875
0.6591796875
0.654296875
0.6591796875
0.654296875
0.654296875
0.654296875
0.654296875
0.654296875
0.654296875
0.654296875
0.654296875
0.654296875
0.654296875
0.654296875
0.654296875
0.654296875
0.6494140625
0.6494140625
0.6494140625
0.6494140625
0.654296875
0.6494140625
0.6494140625
0.6494140625
0.6494140625
0.6494140625
0.64453125
0.64453125
0.64453125
0.64453125
0.6396484375
0.64453125
0.6396484375
0.6396484375
0.64453125
0.6396484375
0.6396484375
0.6396484375
0.6396484375
0.6396484375
0.6396484375
0.6396484375
0.6396484375
0.64453125
0.64453125
0.6494140625
0.654296875
0.654296875
0.6591796875
0.6640625
0.6689453125
0.673828125
0.6787109375
0.68359375
0.6884765625
0.6982421875
0.6982421875
0.703125
0.7080078125
0.712890625
0.712890625
0.7177734375
0.72265625
0.72265625
0.72265625
0.7275390625
0.7275390625
0.72265625
0.7275390625
0.72265625
0.7177734375
0.7177734375
0.712890625
0.7080078125
0.7080078125
0.703125
0.6982421875
0.6982421875
0.693359375
0.6884765625
0.68359375
0.68359375
0.68359375
0.6787109375
0.673828125
0.673828125
0.673828125
0.673828125
0.6689453125
0.6689453125
0.6689453125
0.6640625
0.6640625
0.6591796875
0.6591796875
0.654296875
0.6494140625
0.64453125
0.6396484375
0.634765625
0.6298828125
0.625
0.6201171875
0.6103515625
0.60546875
0.595703125
0.5908203125
0.5810546875
0.576171875
0.5712890625
0.56640625
0.5615234375
0.556640625
0.5517578125
0.546875
0.5419921875
0.5419921875
0.537109375
0.5322265625
0.5322265625
0.5322265625
0.52734375
0.52734375
0.52734375
0.52734375
0.5322265625
0.5322265625
0.537109375
0.5419921875
0.5517578125
0.5517578125
0.556640625
0.5712890625
0.5712890625
0.576171875
0.5859375
0.5859375
0.595703125
0.6005859375
0.6005859375
0.6103515625
0.6103515625
0.615234375
0.6201171875
0.6201171875
0.625
0.6298828125
0.6298828125
0.6298828125
0.6298828125
0.6298828125
0.6298828125
0.6298828125
0.6298828125
0.6298828125
0.625
0.625
0.6201171875
0.625
0.625
0.625
0.625
0.625
0.625
0.625
0.625
0.625
0.625
0.6201171875
0.6201171875
0.615234375
0.615234375
0.6103515625
0.6103515625
0.60546875
0.6005859375
0.6005859375
0.595703125
0.5908203125
0.5859375
0.5810546875
0.576171875
0.5712890625
0.56640625
0.5615234375
0.5615234375
0.5517578125
0.5517578125
0.5517578125
0.546875
0.546875
0.5419921875
0.5419921875
0.537109375
0.5322265625
0.5322265625
0.52734375
0.52734375
0.5224609375
0.5224609375
0.517578125
0.517578125
0.517578125
0.517578125
0.5224609375
0.5224609375
0.5322265625
0.537109375
0.546875
0.556640625
0.5615234375
0.56640625
0.576171875
0.5810546875
0.5859375
0.5908203125
0.595703125
0.6005859375
0.60546875
0.60546875
0.6103515625
0.6103515625
0.6103515625
0.6103515625
0.6103515625
0.6103515625
0.60546875
0.60546875
0.60546875
0.6005859375
0.6005859375
0.595703125
0.5908203125
0.5908203125
0.5859375
0.5859375
0.5859375
0.5810546875
0.5810546875
0.5810546875
0.576171875
0.576171875
0.5712890625
0.5712890625
0.5712890625
0.5712890625
0.5712890625
0.56640625
0.56640625
0.5615234375
0.5615234375
0.5615234375
0.5615234375
0.556640625
0.556640625
0.5517578125
0.5517578125
0.546875
0.546875
0.546875
0.5419921875
0.5419921875
0.5419921875
0.5419921875
0.5419921875
0.537109375
0.537109375
0.537109375
0.537109375
0.537109375
0.537109375
0.5322265625
0.5322265625
0.5322265625
0.5322265625
0.5322265625
0.5322265625
0.5322265625
0.5322265625
0.537109375
0.537109375
0.546875
0.5517578125
0.556640625
0.56640625
0.576171875
0.5859375
0.5908203125
0.595703125
0.60546875
0.6103515625
0.615234375
0.6201171875
0.6201171875
0.6298828125
0.6298828125
0.6298828125
0.6298828125
0.6298828125
0.6298828125
0.6298828125
0.625
0.6201171875
0.6201171875
0.615234375
0.615234375
0.6103515625
0.6103515625
0.60546875
0.60546875
0.60546875
0.60546875
0.60546875
0.60546875
0.60546875
0.60546875
0.60546875
0.6005859375
0.6005859375
0.6005859375
0.6005859375
0.6005859375
0.595703125
0.595703125
0.595703125
0.595703125
0.595703125
0.5908203125
0.5908203125
0.5908203125
0.5859375
0.5859375
0.5810546875
0.5810546875
0.576171875
0.576171875
0.576171875
0.576171875
0.5712890625
0.5712890625
0.56640625
0.56640625
0.56640625
0.5615234375
0.5615234375
0.5615234375
0.556640625
0.556640625
0.556640625
0.556640625
0.556640625
0.5517578125
0.556640625
0.5615234375
0.5615234375
0.5712890625
0.5810546875
0.5859375
0.595703125
0.6005859375
0.6103515625
0.6201171875
0.6298828125
0.634765625
0.6396484375
0.64453125
0.654296875
0.6591796875
0.6591796875
0.6640625
0.6689453125
0.6689453125
0.6689453125
0.673828125
0.673828125
0.673828125
0.673828125
0.6689453125
0.6689453125
0.6640625
0.6640625
0.6591796875
0.6591796875
0.654296875
0.654296875
0.654296875
0.6494140625
0.6494140625
0.6494140625
0.64453125
0.64453125
0.64453125
0.64453125
0.64453125
0.6396484375
0.6396484375
0.634765625
0.634765625
0.6298828125
0.6298828125
0.6298828125
0.6298828125
0.625
0.625
0.6201171875
0.6201171875
0.6201171875
0.6201171875
0.615234375
0.615234375
0.615234375
0.6103515625
0.6103515625
0.6103515625
0.60546875
0.60546875
0.60546875
0.60546875
0.6005859375
0.6005859375
0.6005859375
0.595703125
0.595703125
0.5908203125
0.5908203125
0.5859375
0.5908203125
0.5908203125
0.5859375
0.5908203125
0.5908203125
0.6005859375
0.60546875
0.6103515625
0.6201171875
0.6298828125
0.6396484375
0.6494140625
0.654296875
0.6689453125
0.6787109375
0.6884765625
0.6884765625
0.703125
0.7080078125
0.7080078125
0.712890625
0.7177734375
0.7177734375
0.72265625
0.7275390625
0.7275390625
0.7275390625
0.732421875
0.732421875
0.732421875
0.732421875
0.7275390625
0.7275390625
0.7275390625
0.72265625
0.7177734375
0.7177734375
0.712890625
0.712890625
0.712890625
0.7080078125
0.7080078125
0.703125
0.703125
0.703125
0.6982421875
0.6982421875
0.693359375
0.693359375
0.6884765625
0.6884765625
0.6884765625
0.68359375
0.6787109375
0.6787109375
0.673828125
0.673828125
0.6689453125
0.6689453125
0.6640625
0.6640625
0.6591796875
0.654296875
0.654296875
0.654296875
0.6494140625
0.64453125
0.64453125
0.6396484375
0.6396484375
0.634765625
0.634765625
0.6298828125
0.6298828125
0.6298828125
0.625
0.6201171875
0.615234375
0.6103515625
0.6103515625
0.60546875
0.60546875
0.6005859375
0.6005859375
0.6005859375
0.60546875
0.6103515625
0.615234375
0.625
0.634765625
0.64453125
0.6494140625
0.6591796875
0.6689453125
0.6787109375
0.6884765625
0.6982421875
0.703125
0.712890625
0.7177734375
0.72265625
0.7275390625
0.732421875
0.7373046875
0.7373046875
0.7421875
0.7421875
0.7470703125
0.7470703125
0.7470703125
0.7470703125
0.7470703125
0.7421875
0.7421875
0.7373046875
0.732421875
0.7275390625
0.72265625
0.72265625
0.7177734375
0.712890625
0.7080078125
0.7080078125
0.703125
0.6982421875
0.693359375
0.693359375
0.6884765625
0.6884765625
0.68359375
0.6787109375
0.673828125
0.673828125
0.6689453125
0.6689453125
0.6640625
0.6640625
0.6591796875
0.654296875
0.654296875
0.6494140625
0.64453125
0.64453125
0.6396484375
0.6396484375
0.6396484375
0.634765625
0.634765625
0.6298828125
0.625
0.625
0.6201171875
0.6201171875
0.6201171875
0.615234375
0.615234375
0.6103515625
0.6103515625
0.60546875
0.60546875
0.60546875
0.6005859375
0.6005859375
0.595703125
0.595703125
0.595703125
0.5908203125
0.5859375
0.5859375
0.5859375
0.5859375
0.5859375
0.5908203125
0.5908203125
0.6005859375
0.6005859375
0.6103515625
0.6201171875
0.6298828125
0.6396484375
0.6494140625
0.6591796875
0.6689453125
0.673828125
0.6884765625
0.693359375
0.6982421875
0.7080078125
0.7177734375
0.7177734375
0.7275390625
0.732421875
0.7373046875
0.7421875
0.7421875
0.7470703125
0.751953125
0.751953125
0.751953125
0.7470703125
0.7470703125
0.7470703125
0.7470703125
0.7421875
0.7373046875
0.732421875
0.732421875
0.7275390625
0.7275390625
0.72265625
0.72265625
0.7177734375
0.7177734375
0.7177734375
0.712890625
0.7080078125
0.7080078125
0.703125
0.703125
0.6982421875
0.693359375
0.693359375
0.6884765625
0.68359375
0.6787109375
0.673828125
0.673828125
0.6689453125
0.6640625
0.6591796875
0.654296875
0.6494140625
0.64453125
0.6396484375
0.6396484375
0.634765625
0.6298828125
0.625
0.625
0.615234375
0.615234375
0.6103515625
0.60546875
0.60546875
0.595703125
0.5908203125
0.5859375
0.5810546875
0.576171875
0.5712890625
0.56640625
0.5615234375
0.556640625
0.5517578125
0.5517578125
0.546875
0.5419921875
0.5419921875
0.537109375
0.5419921875
0.5419921875
0.5419921875
0.5517578125
0.556640625
0.56640625
0.5712890625
0.5810546875
0.5908203125
0.6005859375
0.6103515625
0.6201171875
0.6298828125
0.634765625
0.6396484375
0.6494140625
0.654296875
0.6591796875
0.6689453125
0.6689453125
0.673828125
0.6787109375
0.68359375
0.68359375
0.68359375
0.68359375
0.68359375
0.68359375
0.6787109375
0.6787109375
0.673828125
0.6689453125
0.6640625
0.6591796875
0.654296875
0.6494140625
0.64453125
0.6396484375
0.634765625
0.634765625
0.6298828125
0.6298828125
0.625
0.6201171875
0.615234375
0.615234375
0.6103515625
0.6103515625
0.6103515625
0.60546875
0.6005859375
0.6005859375
0.6005859375
0.595703125
0.5908203125
0.5908203125
0.5859375
0.5810546875
0.5810546875
0.5810546875
0.576171875
0.576171875
0.5712890625
0.5712890625
0.5712890625
0.5712890625
0.56640625
0.5615234375
0.5615234375
0.5615234375
0.5615234375
0.556640625
0.5615234375
0.556640625
0.556640625
0.556640625
0.556640625
0.556640625
0.5517578125
0.556640625
0.556640625
0.556640625
0.556640625
0.556640625
0.556640625
0.5615234375
0.56640625
0.5712890625
0.5810546875
0.5859375
0.595703125
0.60546875
0.615234375
0.6298828125
0.634765625
0.64453125
0.6494140625
0.654296875
0.6640625
0.6689453125
0.673828125
0.6787109375
0.68359375
0.68359375
0.6884765625
0.6884765625
0.693359375
0.6884765625
0.6884765625
0.6884765625
0.6884765625
0.6884765625
0.68359375
0.68359375
0.68359375
0.6787109375
0.6787109375
0.673828125
0.6689453125
0.6689453125
0.6689453125
0.6640625
0.6591796875
0.6591796875
0.6591796875
0.654296875
0.6494140625
0.64453125
0.64453125
0.6396484375
0.6396484375
0.634765625
0.634765625
0.6298828125
0.6298828125
0.625
0.6201171875
0.6201171875
0.615234375
0.615234375
0.6103515625
0.6103515625
0.60546875
0.6005859375
0.595703125
0.595703125
0.5908203125
0.5859375
0.5810546875
0.5810546875
0.5810546875
0.576171875
0.576171875
0.576171875
0.576171875
0.576171875
0.576171875
0.5712890625
0.5712890625
0.5712890625
0.56640625
0.5615234375
0.5615234375
0.556640625
0.5517578125
0.5517578125
0.546875
0.546875
0.5419921875
0.537109375
0.537109375
0.537109375
0.5322265625
0.537109375
0.537109375
0.537109375
0.5419921875
0.5517578125
0.556640625
0.5615234375
0.576171875
0.5810546875
0.5859375
0.595703125
0.6005859375
0.60546875
0.615234375
0.625
0.634765625
0.6396484375
0.64453125
0.654296875
0.6591796875
0.6640625
0.6689453125
0.6689453125
0.673828125
0.673828125
0.673828125
0.673828125
0.6689453125
0.6689453125
0.6640625
0.6591796875
0.6591796875
0.6494140625
0.6494140625
0.64453125
0.64453125
0.6396484375
0.6396484375
0.634765625
0.634765625
0.6298828125
0.634765625
0.6298828125
0.6298828125
0.6298828125
0.6298828125
0.6298828125
0.6298828125
0.625
0.6201171875
0.6201171875
0.6201171875
0.615234375
0.615234375
0.6103515625
0.60546875
0.6005859375
0.595703125
0.595703125
0.5908203125
0.5859375
0.5859375
0.5859375
0.5810546875
0.576171875
0.576171875
0.576171875
0.5712890625
0.5712890625
0.5712890625
0.5712890625
0.5712890625
0.5712890625
0.5712890625
0.5712890625
0.56640625
0.56640625
0.56640625
0.5615234375
0.5615234375
0.5615234375
0.556640625
0.556640625
0.5615234375
0.556640625
0.5615234375
0.5615234375
0.56640625
0.576171875
0.576171875
0.5859375
0.595703125
0.6005859375
0.6103515625
0.615234375
0.625
0.6298828125
0.634765625
0.64453125
0.6494140625
0.654296875
0.6591796875
0.6591796875
0.6640625
0.6640625
0.6689453125
0.673828125
0.673828125
0.673828125
0.6787109375
0.673828125
0.673828125
0.673828125
0.6689453125
0.6689453125
0.6640625
0.6640625
0.6591796875
0.654296875
0.654296875
0.6494140625
0.6494140625
0.6494140625
0.64453125
0.64453125
0.6396484375
0.6396484375
0.634765625
0.634765625
0.634765625
0.6298828125
0.6298828125
0.6298828125
0.625
0.6201171875
0.625
0.6201171875
0.615234375
0.615234375
0.615234375
0.6103515625
0.6103515625
0.60546875
0.60546875
0.6005859375
0.595703125
0.595703125
0.5908203125
0.5908203125
0.5908203125
0.5859375
0.5859375
0.5810546875
0.5810546875
0.576171875
0.576171875
0.576171875
0.576171875
0.5712890625
0.56640625
0.56640625
0.5615234375
0.5615234375
0.556640625
0.556640625
0.5517578125
0.546875
0.546875
0.5419921875
0.537109375
0.537109375
0.5322265625
0.537109375
0.5322265625
0.537109375
0.5419921875
0.5419921875
0.546875
0.5517578125
0.556640625
0.5615234375
0.56640625
0.5712890625
0.576171875
0.576171875
0.5810546875
0.5859375
0.5859375
0.5908203125
0.5908203125
0.5908203125
0.595703125
0.595703125
0.595703125
0.595703125
0.595703125
0.595703125
0.5908203125
0.5908203125
0.5908203125
0.5859375
0.5859375
0.5810546875
0.5810546875
0.576171875
0.5810546875
0.576171875
0.576171875
0.576171875
0.576171875
0.5712890625
0.576171875
0.5712890625
0.5712890625
0.5712890625
0.5712890625
0.5712890625
0.5712890625
0.56640625
0.56640625
0.56640625
0.56640625
0.5615234375
0.5615234375
0.556640625
0.556640625
0.556640625
0.5517578125
0.5517578125
0.5517578125
0.5517578125
0.5517578125
0.5517578125
0.5517578125
0.5517578125
0.546875
0.546875
0.546875
0.546875
0.546875
0.5419921875
0.546875
0.5419921875
0.5419921875
0.5419921875
0.537109375
0.5322265625
0.537109375
0.5322265625
0.537109375
0.537109375
0.5322265625
0.537109375
0.5419921875
0.5419921875
0.5517578125
0.556640625
0.56640625
0.576171875
0.5859375
0.595703125
0.6005859375
0.6103515625
0.6201171875
0.6298828125
0.634765625
0.6396484375
0.6494140625
0.654296875
0.6591796875
0.6689453125
0.673828125
0.6787109375
0.6787109375
0.68359375
0.68359375
0.6884765625
0.6884765625
0.6884765625
0.6884765625
0.6884765625
0.6884765625
0.68359375
0.68359375
0.68359375
0.6787109375
0.6787109375
0.6787109375
0.673828125
0.673828125
0.673828125
0.673828125
0.673828125
0.6689453125
0.6689453125
0.6689453125
0.6640625
0.6689453125
0.6689453125
0.6640625
0.6591796875
0.6591796875
0.654296875
0.654296875
0.6494140625
0.64453125
0.64453125
0.6396484375
0.6396484375
0.634765625
0.634765625
0.6298828125
0.6298828125
0.6298828125
0.625
0.625
0.6201171875
0.615234375
0.615234375
0.6103515625
0.6103515625
0.60546875
0.60546875
0.6005859375
0.595703125
0.5908203125
0.5908203125
0.5859375
0.5810546875
0.5810546875
0.576171875
0.576171875
0.56640625
0.5712890625
0.56640625
0.56640625
0.56640625
0.56640625
0.5712890625
0.5712890625
0.576171875
0.5810546875
0.5859375
0.5859375
0.5908203125
0.6005859375
0.60546875
0.6103515625
0.615234375
0.6201171875
0.625
0.6298828125
0.6298828125
0.634765625
0.6396484375
0.6396484375
0.64453125
0.6494140625
0.64453125
0.6494140625
0.6494140625
0.6494140625
0.64453125
0.64453125
0.6396484375
0.6396484375
0.634765625
0.6298828125
0.6298828125
0.6298828125
0.6298828125
0.6201171875
0.6201171875
0.615234375
0.615234375
0.6103515625
0.6103515625
0.6103515625
0.60546875
0.6005859375
0.6005859375
0.595703125
0.6005859375
0.595703125
0.595703125
0.5908203125
0.5908203125
0.5908203125
0.5908203125
0.5859375
0.5859375
0.5859375
0.5859375
0.5859375
0.5810546875
0.5859375
0.5810546875
0.5810546875
0.5810546875
0.5810546875
0.576171875
0.576171875
0.576171875
0.576171875
0.576171875
0.5712890625
0.5712890625
0.5712890625
0.56640625
0.56640625
0.5615234375
0.556640625
0.5615234375
0.556640625
0.5517578125
0.5517578125
0.546875
0.546875
0.5419921875
0.5419921875
0.5419921875
0.5419921875
0.546875
0.5517578125
0.5517578125
0.556640625
0.56640625
0.576171875
0.5810546875
0.5908203125
0.6005859375
0.60546875
0.615234375
0.6201171875
0.6298828125
0.634765625
0.6396484375
0.64453125
0.6494140625
0.654296875
0.6591796875
0.6640625
0.6640625
0.6689453125
0.6689453125
0.6689453125
0.673828125
0.6689453125
0.6689453125
0.6689453125
0.6689453125
0.6640625
0.6640625
0.6640625
0.6591796875
0.6591796875
0.654296875
0.6591796875
0.654296875
0.654296875
0.654296875
0.6494140625
0.6494140625
0.6494140625
0.6494140625
0.64453125
0.64453125
0.6396484375
0.6396484375
0.634765625
0.634765625
0.634765625
0.6298828125
0.6298828125
0.6298828125
0.6298828125
0.6298828125
0.6298828125
0.625
0.6201171875
0.6201171875
0.615234375
0.615234375
0.6103515625
0.60546875
0.60546875
0.60546875
0.6005859375
0.595703125
0.595703125
0.5908203125
0.5908203125
0.5859375
0.5859375
0.5810546875
0.576171875
0.576171875
0.576171875
0.576171875
0.576171875
0.5712890625
0.5712890625
0.5712890625
0.5712890625
0.5712890625
0.5712890625
0.5712890625
0.56640625
0.5712890625
0.5712890625
0.576171875
0.576171875
0.5810546875
0.5859375
0.5908203125
0.6005859375
0.60546875
0.615234375
0.6201171875
0.6298828125
0.634765625
0.6396484375
0.6396484375
0.6494140625
0.6494140625
0.654296875
0.6591796875
0.6640625
0.6689453125
0.6689453125
0.6689453125
0.673828125
0.673828125
0.673828125
0.673828125
0.673828125
0.6689453125
0.6689453125
0.6689453125
0.6689453125
0.6640625
0.6640625
0.6591796875
0.6591796875
0.6591796875
0.6591796875
0.654296875
0.6494140625
0.6494140625
0.6494140625
0.64453125
0.64453125
0.6396484375
0.6396484375
0.634765625
0.634765625
0.6298828125
0.6298828125
0.6298828125
0.625
0.625
0.6201171875
0.6201171875
0.615234375
0.6103515625
0.6103515625
0.6103515625
0.60546875
0.60546875
0.6005859375
0.6005859375
0.6005859375
0.595703125
0.595703125
0.595703125
0.5908203125
0.5908203125
0.5908203125
0.5810546875
0.5810546875
0.576171875
0.5712890625
0.5712890625
0.56640625
0.5615234375
0.556640625
0.5517578125
0.546875
0.546875
0.5419921875
0.537109375
0.5322265625
0.5322265625
0.52734375
0.5224609375
0.5224609375
0.5224609375
0.5224609375
0.52734375
0.52734375
0.5322265625
0.537109375
0.5419921875
0.5517578125
0.5517578125
0.5615234375
0.5712890625
0.576171875
0.5859375
0.5908203125
0.595703125
0.6005859375
0.60546875
0.6103515625
0.615234375
0.615234375
0.6201171875
0.625
0.6298828125
0.6298828125
0.6298828125
0.6298828125
0.634765625
0.6298828125
0.6298828125
0.634765625
0.6298828125
0.6298828125
0.6298828125
0.6298828125
0.6298828125
0.6298828125
0.6298828125
0.6298828125
0.6298828125
0.6298828125
0.625
0.625
0.625
0.625
0.625
0.6201171875
0.6201171875
0.6201171875
0.615234375
0.615234375
0.615234375
0.615234375
0.615234375
0.6103515625
0.6103515625
0.60546875
0.60546875
0.60546875
0.6005859375
0.6005859375
0.6005859375
0.595703125
0.595703125
0.595703125
0.5908203125
0.5908203125
0.5908203125
0.5859375
0.5859375
0.5810546875
0.5810546875
0.576171875
0.576171875
0.5712890625
0.56640625
0.56640625
0.56640625
0.5615234375
0.556640625
0.5615234375
0.556640625
0.556640625
0.5517578125
0.556640625
0.556640625
0.5517578125
0.5517578125
0.556640625
0.556640625
0.5615234375
0.56640625
0.5712890625
0.5810546875
0.5859375
0.595703125
0.6005859375
0.6103515625
0.6201171875
0.6298828125
0.634765625
0.6396484375
0.6494140625
0.654296875
0.6591796875
0.6640625
0.673828125
0.673828125
0.6787109375
0.68359375
0.6884765625
0.693359375
0.693359375
0.6884765625
0.693359375
0.6884765625
0.6884765625
0.693359375
0.6884765625
0.6884765625
0.68359375
0.6884765625
0.68359375
0.68359375
0.68359375
0.68359375
0.6787109375
0.673828125
0.6787109375
0.673828125
0.673828125
0.6689453125
0.6689453125
0.6640625
0.6591796875
0.6591796875
0.6591796875
0.654296875
0.654296875
0.6494140625
0.64453125
0.6396484375
0.6396484375
0.634765625
0.6298828125
0.6298828125
0.625
0.6201171875
0.615234375
0.6103515625
0.6103515625
0.60546875
0.6005859375
0.595703125
0.5908203125
0.5859375
0.5859375
0.5810546875
0.5712890625
0.5712890625
0.56640625
0.5615234375
0.556640625
0.5517578125
0.546875
0.546875
0.5419921875
0.537109375
0.5322265625
0.5322265625
0.52734375
0.5224609375
0.5224609375
0.5224609375
0.517578125
0.5224609375
0.52734375
0.5322265625
0.5322265625
0.5419921875
0.546875
0.5517578125
0.556640625
0.56640625
0.576171875
0.5810546875
0.5859375
0.5908203125
0.595703125
0.6005859375
0.6103515625
0.615234375
0.6201171875
0.6201171875
0.625
0.6298828125
0.6298828125
0.6298828125
0.6298828125
0.6298828125
0.6298828125
0.6298828125
0.6298828125
0.625
0.625
0.625
0.6201171875
0.6201171875
0.6201171875
0.625
0.6201171875
0.6201171875
0.6201171875
0.6201171875
0.615234375
0.615234375
0.615234375
0.6103515625
0.6103515625
0.60546875
0.60546875
0.6005859375
0.6005859375
0.6005859375
0.6005859375
0.595703125
0.595703125
0.5908203125
0.595703125
0.5908203125
0.5908203125
0.5908203125
0.5859375
0.5859375
0.5859375
0.5810546875
0.576171875
0.5810546875
0.576171875
0.5810546875
0.576171875
0.5712890625
0.5712890625
0.5712890625
0.5712890625
0.56640625
0.56640625
0.56640625
0.5615234375
0.5615234375
0.5615234375
0.556640625
0.5615234375
0.5615234375
0.56640625
0.5712890625
0.576171875
0.5810546875
0.5859375
0.595703125
0.60546875
0.615234375
0.6201171875
0.6298828125
0.634765625
0.64453125
0.654296875
0.654296875
0.6640625
0.6689453125
0.673828125
0.6787109375
0.68359375
0.6884765625
0.6884765625
0.6884765625
0.693359375
0.6982421875
0.6982421875
0.6982421875
0.6982421875
0.6982421875
0.6982421875
0.693359375
0.693359375
0.6884765625
0.6884765625
0.68359375
0.68359375
0.68359375
0.6787109375
0.6787109375
0.673828125
0.673828125
0.673828125
0.673828125
0.6689453125
0.6640625
0.6591796875
0.6591796875
0.6591796875
0.6591796875
0.654296875
0.654296875
0.6494140625
0.6494140625
0.64453125
0.64453125
0.64453125
0.6396484375
0.6396484375
0.6396484375
0.634765625
0.634765625
0.6298828125
0.6298828125
0.6298828125
0.625
0.625
0.6201171875
0.6201171875
0.615234375
0.615234375
0.615234375
0.615234375
0.615234375
0.6103515625
0.6103515625
0.6103515625
0.60546875
0.60546875
0.60546875
0.60546875
0.6005859375
0.60546875
0.6005859375
0.60546875
0.6103515625
0.6103515625
0.615234375
0.6201171875
0.6298828125
0.634765625
0.6396484375
0.6494140625
0.6591796875
0.6640625
0.6689453125
0.6787109375
0.68359375
0.6884765625
0.693359375
0.703125
0.7080078125
0.712890625
0.7177734375
0.72265625
0.7275390625
0.7275390625
0.732421875
0.732421875
0.732421875
0.7373046875
0.7373046875
0.7373046875
0.7373046875
0.732421875
0.732421875
0.7275390625
0.7275390625
0.7275390625
0.72265625
0.72265625
0.72265625
0.72265625
0.7177734375
0.712890625
0.712890625
0.7080078125
0.7080078125
0.703125
0.703125
0.6982421875
0.6982421875
0.6982421875
0.693359375
0.6884765625
0.68359375
0.68359375
0.6787109375
0.673828125
0.6689453125
0.6591796875
0.654296875
0.654296875
0.6494140625
0.64453125
0.6396484375
0.634765625
0.6298828125
0.625
0.6201171875
0.6201171875
0.615234375
0.6103515625
0.60546875
0.6005859375
0.6005859375
0.595703125
0.5908203125
0.5908203125
0.5859375
0.5859375
0.5810546875
0.576171875
0.576171875
0.5712890625
0.5712890625
0.5712890625
0.5712890625
0.5712890625
0.56640625
0.5712890625
0.56640625
0.5712890625
0.56640625
0.5712890625
0.5712890625
0.56640625
0.5712890625
0.5712890625
0.576171875
0.5810546875
0.5859375
0.5908203125
0.595703125
0.60546875
0.6103515625
0.6201171875
0.6298828125
0.634765625
0.6396484375
0.6494140625
0.654296875
0.6591796875
0.6640625
0.6689453125
0.6689453125
0.673828125
0.673828125
0.673828125
0.6787109375
0.6787109375
0.673828125
0.673828125
0.6689453125
0.6689453125
0.6640625
0.6591796875
0.654296875
0.6494140625
0.64453125
0.6396484375
0.634765625
0.6298828125
0.6298828125
0.625
0.6201171875
0.6201171875
0.6201171875
0.615234375
0.6103515625
0.6103515625
0.60546875
0.60546875
0.6005859375
0.6005859375
0.595703125
0.5908203125
0.5908203125
0.5859375
0.5859375
0.5810546875
0.576171875
0.576171875
0.576171875
0.576171875
0.5712890625
0.56640625
0.56640625
0.56640625
0.56640625
0.56640625
0.5615234375
0.56640625
0.5615234375
0.56640625
0.5615234375
0.56640625
0.56640625
0.56640625
0.56640625
0.56640625
0.56640625
0.56640625
0.5712890625
0.5712890625
0.5712890625
0.5712890625
0.5712890625
0.576171875
0.576171875
0.5810546875
0.5810546875
0.5859375
0.5908203125
0.5908203125
0.595703125
0.60546875
0.6103515625
0.6201171875
0.6298828125
0.6298828125
0.6396484375
0.6494140625
0.654296875
0.6591796875
0.6689453125
0.673828125
0.6787109375
0.68359375
0.6884765625
0.6884765625
0.6982421875
0.703125
0.703125
0.703125
0.7080078125
0.7080078125
0.712890625
0.712890625
0.712890625
0.712890625
0.712890625
0.712890625
0.7080078125
0.7080078125
0.703125
0.6982421875
0.6982421875
0.693359375
0.6884765625
0.6884765625
0.6884765625
0.68359375
0.68359375
0.68359375
0.68359375
0.6787109375
0.673828125
0.6689453125
0.6591796875
0.654296875
0.654296875
0.6494140625
0.64453125
0.6395874456789
0.6347856790234567
0.62987942345678
0.62523456789
0.620147654345
0.62023456789
0.6153456789
0.6153456789
0.6153456789
0.614237344735
0.61445789274774
0.6134858933457
0.61318437489
0.6129097598849398
0.612123456
0.61231382473
0.61192345
0.6115778566767
0.61135474689
0.6116564343664
0.6113456789
0.6116876543
0.610122434325
0.609723567
0.6084363293
0.60734354634
0.606345742743
0.60546875
0.60546875
0.6005859375
0.6005859375
0.595703125
0.595703125
0.5908203125
0.5908203125
0.5859375
0.5859375
0.5908203125
0.5908203125
0.595703125
0.6005859375
0.60546875
0.6103515625
0.6201171875
0.625
0.6298828125
0.634765625
0.6396484375
0.64453125
0.6494140625
0.6494140625
0.654296875
0.6591796875
0.6640625
0.6640625
0.6640625
0.6689453125
0.6689453125
0.6689453125
0.6689453125
0.6689453125
0.6689453125
0.6640625
0.6591796875
0.6591796875
0.6591796875
0.654296875
0.6494140625
0.6494140625
0.64453125
0.64453125
0.6396484375
0.6396484375
0.634765625
0.6298828125
0.6298828125
0.6298828125
0.6298828125
0.6298828125
0.6201171875
0.6201171875
0.615234375
0.6201171875
0.615234375
0.6103515625
0.60546875
0.60546875
0.595703125
0.595703125
0.595703125
0.5908203125
0.5859375
0.5810546875
0.5810546875
0.576171875
0.5712890625
0.5712890625
0.56640625
0.5615234375
0.5615234375
0.556640625
0.556640625
0.5517578125
0.5517578125
0.546875
0.546875
0.546875
0.5419921875
0.537109375
0.537109375
0.5322265625
0.52734375
0.52734375
0.52734375
0.5224609375
0.5224609375
0.5224609375
0.517578125
0.5126953125
0.5126953125
0.5126953125
0.5126953125
0.5126953125
0.517578125
0.517578125
0.52734375
0.52734375
0.5322265625
0.5419921875
0.5517578125
0.556640625
0.5615234375
0.5712890625
0.576171875
0.5810546875
0.5859375
0.5908203125
0.595703125
0.60546875
0.60546875
0.6103515625
0.615234375
0.6201171875
0.6201171875
0.6201171875
0.6298828125
0.6298828125
0.6298828125
0.625
0.625
0.625
0.6201171875
0.6201171875
0.6201171875
0.6201171875
0.6201171875
0.615234375
0.615234375
0.615234375
0.6103515625
0.615234375
0.6103515625
0.6103515625
0.6103515625
0.60546875
0.60546875
0.6005859375
0.6005859375
0.595703125
0.595703125
0.5908203125
0.5908203125
0.5859375
0.5859375
0.5810546875
0.5810546875
0.576171875
0.5712890625
0.5712890625
0.56640625
0.56640625
0.5615234375
0.556640625
0.556640625
0.5517578125
0.5517578125
0.5517578125
0.5517578125
0.546875
0.546875
0.5419921875
0.5419921875
0.5419921875
0.537109375
0.537109375
0.537109375
0.537109375
0.537109375
0.537109375
0.537109375
0.5419921875
0.5419921875
0.546875
0.5517578125
0.5615234375
0.5712890625
0.5810546875
0.5908203125
0.6005859375
0.6103515625
0.615234375
0.6298828125
0.634765625
0.6396484375
0.6494140625
0.654296875
0.6640625
0.6689453125
0.673828125
0.6787109375
0.68359375
0.6884765625
0.693359375
0.6982421875
0.6982421875
0.703125
0.703125
0.7080078125
0.703125
0.7080078125
0.7080078125
0.7080078125
0.703125
0.703125
0.703125
0.6982421875
0.6982421875
0.6982421875
0.693359375
0.6982421875
0.693359375
0.693359375
0.6884765625
0.6884765625
0.6884765625
0.68359375
0.6787109375
0.6787109375
0.673828125
0.673828125
0.673828125
0.6689453125
0.6640625
0.6640625
0.6591796875
0.654296875
0.6494140625
0.6494140625
0.64453125
0.6396484375
0.634765625
0.634765625
0.6298828125
0.6298828125
0.625
0.6201171875
0.6201171875
0.615234375
0.6103515625
0.60546875
0.60546875
0.60546875
0.6005859375
0.595703125
0.595703125
0.5859375
0.5859375
0.5810546875
0.5859375
0.576171875
0.576171875
0.576171875
0.5712890625
0.5712890625
0.56640625
0.56640625
0.56640625
0.5712890625
0.576171875
0.576171875
0.5810546875
0.5859375
0.595703125
0.6005859375
0.60546875
0.615234375
0.6201171875
0.6201171875
0.6298828125
0.634765625
0.634765625
0.6396484375
0.64453125
0.6494140625
0.654296875
0.654296875
0.6591796875
0.6591796875
0.6640625
0.6640625
0.6640625
0.6640625
0.6591796875
0.654296875
0.654296875
0.64453125
0.64453125
0.6396484375
0.6298828125
0.6298828125
0.6201171875
0.615234375
0.615234375
0.6103515625
0.60546875
0.6005859375
0.595703125
0.595703125
0.5908203125
0.5859375
0.5859375
0.5810546875
0.576171875
0.576171875
0.5712890625
0.5712890625
0.56640625
0.5615234375
0.5615234375
0.556640625
0.5517578125
0.5517578125
0.546875
0.546875
0.5419921875
0.537109375
0.537109375
0.5322265625
0.52734375
0.5224609375
0.52734375
0.5224609375
0.5224609375
0.517578125
0.5126953125
0.5126953125
0.5126953125
0.5078125
0.5078125
0.5078125
0.5029296875
0.5029296875
0.5029296875
0.4931640625
0.498046875
0.498046875
0.4931640625
0.4931640625
0.4931640625
0.4931640625
0.4931640625
0.498046875
0.5029296875
0.5126953125
0.517578125
0.52734375
0.537109375
0.546875
0.556640625
0.56640625
0.576171875
0.5859375
0.5908203125
0.6005859375
0.6103515625
0.615234375
0.6201171875
0.6298828125
0.634765625
0.634765625
0.6396484375
0.64453125
0.6494140625
0.6494140625
0.6494140625
0.654296875
0.654296875
0.654296875
0.654296875
0.654296875
0.654296875
0.654296875
0.654296875
0.6494140625
0.6494140625
0.6494140625
0.6494140625
0.64453125
0.64453125
0.6396484375
0.64453125
0.6396484375
0.6396484375
